0.12150167831646398
0.44037195005777785
0.5908869143199416
0.49368441681051395
0.20077576372171546
-0.1322886249408654
-0.32846859177608595
-0.2830004072380945
-0.01970777089712261
0.32232849560720145
0.5627239450078236
0.574439733663995
0.352059168443735
0.013726249722995399
-0.26070758017694284
-0.3254811027505275
-0.14544729132150738
0.18443489848381622
0.48986131455986326
0.6097985888783932
0.4812801830351188
0.17276382544604996
-0.15170141834041462
-0.3197008942606899
-0.24169233171954577
0.04184061844621377
0.38110455097766166
0.5969243149935852
0.5755175214270927
0.32892797649338956
-0.011571580268355544
-0.264999649257085
-0.2965413487984823
-0.08880841442512545
0.2485507097005787
0.5376717667082996
0.6260669366565978
0.4675277634043013
0.1466612759377773
-0.16579524695645195
-0.3037031320887287
-0.19347794229693147
0.10712597797060497
0.43947502724860454
0.628118492992553
0.573658443913562
0.30564531280272084
-0.03309578442757187
-0.26270636251067325
-0.26092930639229955
-0.027900104642297252
0.3137316764052524
0.5834455613832066
0.6390398580982308
0.45158563465904505
0.12082759734452173
-0.17712221012711907
-0.283992248280206
-0.1426608809670964
0.1725612955414936
0.495079378267053
0.6543669196526459
0.566401485911207
0.2783583093836993
-0.05699194802256779
-0.26183870976542273
-0.22713343301743188
0.02874692645727315
0.37068756369291067
0.6179600453278895
0.6396501109052909
0.42438381376077106
0.08644722738616449
-0.19499643645986844
-0.2706987070135112
-0.10054806817283778
0.224979954204803
0.5335643166019888
0.6613146182168382
0.5404288934400638
0.2345376124305567
-0.09466613512821795
-0.2732038900878142
-0.20691829949077303
0.06866678642739661
0.40706659830376957
0.6285157260938512
0.6152392530805809
0.37392593752901837
0.03174868092951221
-0.23051233700052812
-0.27429966484077745
-0.0769360440927779
0.2566023804261121
0.549239837083439
0.6452488428613649
0.49353872944282173
0.17410651388023604
-0.14422016134365745
-0.29324091825010956
-0.19414995736492452
0.10000118544351404
0.43344083980348386
0.6290871003401401
0.5831515743133647
0.32004270480898434
-0.021279152221073246
-0.25970662328934563
-0.26917891626747104
-0.044750309014495365
0.29450686578391005
0.5690587004073624
0.6332686831039132
0.45336877322270985
0.12439631127092107
-0.1791824216900183
-0.2962354388996603
-0.16470192346263787
0.14562431294886535
0.47085869274825204
0.6386158843394942
0.5600477169215383
0.2769306923078746
-0.06060005567416215
-0.27368136995932685
-0.24963786154365808
-0.0007424426933080319
0.3412554570847044
0.5952844326903283
0.6267514533254838
0.4190966998480601
0.08248623242988776
-0.20464438573620572
-0.2904136426190605
-0.12922024333169047
0.19338474633559932
0.5066562830244192
0.644473744235323
0.5341401738829885
0.23416160431260968
-0.09646928072599337
-0.2825255634475705
-0.22511833068840012
0.04550061239059582
0.3858849565112889
0.6160396251912552
0.613981618036196
0.3810789208478335
0.040451348980349404
-0.2273230669164441
-0.2805485173638421
-0.09087821596694858
0.2407963997821026
0.5389069641861991
0.645145787355137
0.503225080180102
0.18834039539746075
-0.13258043695969624
-0.28990619273627055
-0.20012054383158118
0.08915605628991391
0.4245118835755706
0.6282329878243127
0.5923132122271549
0.33567689292560443
-0.006023331790032657
-0.2518746036802251
-0.27192468141061776
-0.05542978364948594
0.28258168077399604
0.562961349256488
0.6369279339085012
0.4649028616001843
0.138253110506885
-0.1704363797058394
-0.2978776715679595
-0.1769259030358002
0.12828575115983748
0.4560082043478359
0.6322308756045815
0.5633590439072838
0.2856933460982156
-0.053841088245252716
-0.27548798585881457
-0.2621242048335986
-0.02106942967579726
0.31977034142738153
0.5795828361179541
0.6206167378713563
0.4208606106233603
0.08590180277371494
-0.20723162999938174
-0.30343940964562266
-0.1519514160290241
0.16648151249625542
0.48300300045293526
0.6295703905484343
0.5282560690857772
0.23258976048696509
-0.10111782850626866
-0.2961870015619758
-0.24960622733061044
0.013671702336270186
0.3540077473353419
0.5908169035773165
0.598497573607957
0.372695228739554
0.03268708460230646
-0.24171257131555385
-0.3053151054506744
-0.12461007599468926
0.2043266152809025
0.5069095756940629
0.6223917928346555
0.48941882126883696
0.1781575471495007
-0.14683329356725022
-0.31356137138156054
-0.23407456075998673
0.04919962926724286
0.38582695702415076
0.5974596749338638
0.5714894100253293
0.3212594659762199
-0.021046411872684117
-0.2743902801698935
-0.30484410359155806
-0.09667681282948178
0.23955001805513296
0.5254336806745733
0.6092207096755831
0.44635855268634633
0.12277981181066805
-0.1903248507166101
-0.3273766735847713
-0.21588619201165998
0.08452923686399628
0.4145206066188357
0.5990477641229662
0.53993290275253
0.26824891955634983
-0.0725402253561041
-0.30210558133139204
-0.29938150356423876
-0.06588644660804108
0.2742707443653929
0.5404175659818155
0.5914066563312204
0.3999147100173275
0.06693630928268605
-0.23118442806942113
-0.33706808761127316
-0.19522156874080338
0.1192377322665831
0.4389718569043421
0.5944463484553552
0.5026524962311243
0.21209603354955114
-0.12377391808707557
-0.3267419267732354
-0.28956549293389033
-0.031956359955173166
0.30937648473071194
0.5535794121492089
0.5711035186893548
0.35243656404739404
0.012826462410642609
-0.26847604173319944
-0.3432795211251759
-0.17237862219643496
0.15341253706051167
0.46060705086728027
0.5865624569369634
0.46455184209422906
0.15933031867837272
-0.16697911265111698
-0.3415388110700188
-0.27171889894293344
0.0055642553820178416
0.3431882744244108
0.5617298483016578
0.5446396310211733
0.300309058694799
-0.04270497855511634
-0.30348093801461096
-0.34483542471584233
-0.1451425345863271
0.1890805786724446
0.48001526169437797
0.5733515733411146
0.41888142063971917
0.0979880225394737
-0.21992530808033348
-0.3668160669085139
-0.26551577412155497
0.02968824765181035
0.36182891884853646
0.5545117655226196
0.5053838658200135
0.2401024114810043
-0.10125753421543378
-0.33819545716128474
-0.3457312225837467
-0.11994107901345413
0.21917418669257716
0.4918037270036135
0.5530892753578506
0.370099355378859
0.039666468517611186
-0.2631870990729466
-0.3783823812405571
-0.2451920064269929
0.06560505178614781
0.38897932376248473
0.5535350348931678
0.47173697072227205
0.18662306729661837
-0.15107569632690304
-0.3628485980262649
-0.3366769440052248
-0.08673352882781137
0.25420580746106536
0.5052200859439381
0.5329285922418404
0.3224695894448185
-0.015201505028618847
-0.30175775016723316
-0.3854158121298505
-0.22187094688996292
0.10224385147621788
0.41641754860727215
0.5556964953305612
0.4487619684798152
0.15638194846389264
-0.16077898354897277
-0.32770991895549023
-0.24770698701152188
0.04637485727589575
0.407089498798634
0.6401926933573832
0.6351560489380804
0.3997398273046415
0.05867936307015354
-0.20750166215061752
-0.257926001091085
-0.06621389282328717
0.2659378479111237
0.5621339693547631
0.6650447092115247
0.5181295185392295
0.18107859273124058
-0.17311302173625884
-0.3625475641702011
-0.2977523810920149
-0.02459095140850901
0.30309246859034855
0.5051015956129039
0.4706718894943084
0.21729694871206612
-0.12014523815392536
-0.3620252442060996
-0.3789991053274111
-0.1614636065895034
0.17543667897342247
0.45263250198844207
0.5228857829968363
0.34808664150423174
0.020258244657262704
-0.28745551893658994
-0.4125392551677684
-0.2888852448013255
0.017770197729416688
0.34477293673874515
0.5185781003710068
0.44716186842840644
0.1681361169765508
-0.1705406322242321
-0.38958049708586673
-0.3729695994152867
-0.12956962370753505
0.2115343518952434
0.46987592593536387
0.5084816050036246
0.3067127453032073
-0.028546286354409277
-0.319450425371038
-0.4120817403116312
-0.2572756399186874
0.06307416094831644
0.3793011085010818
0.5237266649849863
0.4201835160527776
0.12363576049678915
-0.20893676833988084
-0.401227241650735
-0.35102191054603443
-0.0850022532946775
0.2561229538779218
0.49174069174737434
0.4971340438979365
0.26937137139593137
-0.0704240590152935
-0.3421671869044336
-0.4018533123992126
-0.21773133825612367
0.1127718402464051
0.4150819116735354
0.5290696480581324
0.3943555307160013
0.08273036891948836
-0.24046853574513144
-0.40424432561797213
-0.3211593884308383
-0.0354622082304653
0.3019425517035731
0.5124646540223289
0.4846772428541992
0.23370280441690736
-0.10725308530420574
-0.35730916617699865
-0.38363412511141415
-0.17191501379572888
0.16581979992683854
0.45124229245099023
0.5332233287260604
0.3687488431421589
0.04543144591926962
-0.26525721023351856
-0.3982699200828777
-0.282938784459892
0.02014124256733016
0.3505958874321998
0.5337672881247052
0.47306490029829296
0.2009213602765099
-0.13796964184954255
-0.3638232533429213
-0.3565335304245008
-0.1195630846977077
0.22200910296506873
0.4878114675479816
0.5373997762481366
0.34497778650475674
0.013063178625479108
-0.2821009006042403
-0.3834773284974989
-0.2366847426466103
0.08103517075187276
0.4018129922220704
0.5565967296827385
0.4636773121505195
0.17288733313390345
-0.16109552349759076
-0.36102603514773185
-0.3204736544365372
-0.060684237941332674
0.2814507049943896
0.5250446731098573
0.54140180619197
0.32207046465812994
-0.016347143044026007
-0.2940846270029152
-0.363777711827612
-0.18825223383710438
0.13982231885106117
0.446726496663409
0.5702752570284128
0.4453019039995393
0.1380821182165214
-0.18844197450912786
-0.36102299281656053
-0.28824467026904815
-0.008573939031007831
0.3298383436882175
0.5477627604496563
0.5297229872927562
0.2851310317793758
-0.05652220848796705
-0.31458735102379054
-0.3523431692553439
-0.15029885703687743
0.18405547624960594
0.47345257772252336
0.5639685143396508
0.40724266147313154
0.08579808734339026
-0.2303982183267984
-0.37439518577700914
-0.27034670111851566
0.026267640606930924
0.3578569064892151
0.548204989422731
0.496160785326361
0.22882853405122555
-0.11265204611435925
-0.3477588916310037
-0.3517999999412725
-0.12351712051659053
0.21644901815020412
0.48738160198944863
0.546252211209155
0.3615689985337779
0.031231353078021697
-0.2696756575964539
-0.3818168463694209
-0.24532188841109354
0.06756881510437163
0.39109274665215654
0.5540938815198913
0.47039580590975977
0.18461523481629927
-0.15169124601501943
-0.3599772172924016
-0.32969012915423296
-0.07662142878559393
0.26579619508104796
0.5164437675071737
0.5429614747095131
0.33182579156743097
-0.00482570165884766
-0.2879056501921465
-0.3671020746726363
-0.20005122690771163
0.12533735133189303
0.4369147939218909
0.5703045037548188
0.45512989596454895
0.1529738917058573
-0.1758018780287371
-0.3564148223402569
-0.2927100668040836
-0.01814009132665098
0.32219046436392057
0.5486530486704294
0.5417847842157852
0.3056794643760667
-0.0342024759426849
-0.29740437513774926
-0.34419806095559463
-0.14913092997555272
0.18498107371339728
0.4811281520070166
0.5829691390531127
0.43688011192073717
0.12070186197416724
-0.19757526524250796
-0.34876441525594826
-0.25230957744445787
0.040873523114348026
0.376157908154883
0.5765273619148991
0.5359999264203604
0.2766077927650526
-0.06402887110487249
-0.3051322517097046
-0.31845660373948736
-0.09630143316728648
0.24367599590708586
0.5219367676576584
0.5913935179318813
0.41560790572522543
0.08833477124532678
-0.21701565327005923
-0.33791041388806653
-0.21040565528608615
0.09844410228341316
0.4254113710696372
0.5975891343354289
0.5239697048249875
0.24395436090140915
-0.09375579782380514
-0.31027362148165705
-0.2903419468217055
-0.044163578720630786
0.29772562904613387
0.5548969616815682
0.5910439001333216
0.38770338808470456
0.05288906601511089
-0.23571107643731737
-0.3249313624130362
-0.16725625876534053
0.15420309385940906
0.4696628591622524
0.6121006360788911
0.506152889339583
0.2084546949138418
-0.12307537398402414
-0.3123552736757395
-0.2591382317591648
0.008808548150599699
0.34963609802121864
0.5831566289693965
0.5859071516800642
0.356699676064366
0.017212839321144792
-0.25261070095219973
-0.3094792619664815
-0.12284227075815028
0.20864932323281274
0.5096429113962783
0.620998756774491
0.48403774800446947
0.17156860142681785
-0.1505446432988584
-0.31143080663880135
-0.22537495245867842
0.062277828489803747
0.3992813158588113
0.6076967544194786
0.5772063830752832
0.32431015371856853
-0.01693396900153877
-0.2654932639432367
-0.28948196153025096
-0.07584587129405732
0.26236842807650196
0.5464391193517851
0.6257917372588886
0.45887361113363023
0.13441037952446902
-0.17537620779392726
-0.3061020280453515
-0.18848475227375833
0.1156268399036158
0.4452450931192607
0.6262668950242813
0.5626137740806841
0.2884366263524656
-0.05087195039832989
-0.27532213133060873
-0.26601629347128763
-0.027479245149272413
0.314088365649449
0.5776667509297329
0.62396543161447
0.4285969214929266
0.09559506062587517
-0.1985092864236864
-0.29815402941417857
-0.1500330757763785
0.16749489654152444
0.4864815371346154
0.6378081443474655
0.541351575974186
0.24834815992620382
-0.08574716465380783
-0.28370971270832906
-0.24068945175791567
0.020936005647537878
0.3624192133860196
0.6032942656462561
0.6160079146057109
0.394211771400972
0.05525338404680843
-0.22115843841553107
-0.2884564812167404
-0.1110593367867529
0.21723605340534374
0.5223295841498379
0.6428256320944334
0.51480184359789
0.20580964899509108
-0.11971949600195413
-0.2892622526821299
-0.21294265309922944
0.0695853444031578
0.4085918323249779
0.6249737464813653
0.6044161330599228
0.357791947911205
0.01579789987103987
-0.2405999440395053
-0.27571272959887844
-0.07142447876510441
0.26417006341860416
0.5529649983841135
0.642595385900072
0.48562997948939035
0.16584646382009088
-0.14663669980733923
-0.28601123245162297
-0.17783851166568898
0.12101332854040994
0.452060133546923
0.6397975367006755
0.5845239516192839
0.315069571407698
-0.02645085850115699
-0.2594658428715209
-0.2609823683808535
-0.030564186864878273
0.3093946270649466
0.5787266427141637
0.6343600536503077
0.4466057307288821
0.11462383661233878
-0.18600878327708786
-0.2959901346837811
-0.15767324151764578
0.15548577754464102
0.4773236613361227
0.6372167592781288
0.5502735551735983
0.262526472037367
-0.07373261639930034
-0.2804545652593602
-0.2483198743753363
0.005663468186019642
0.3468544337915541
0.5942694292487475
0.6165789766986536
0.40224017158722486
0.06408442608099035
-0.21833303992020991
-0.2956206603063066
-0.12695757667021235
0.19823606759090132
0.5073879423853797
0.6371109108959239
0.518095902491081
0.2136585282162737
-0.11551213600702984
-0.29499378142827515
-0.2299081753125369
0.045296550136533074
0.38474184963127406
0.6082799639397429
0.5973800845378338
0.3576790671526191
0.015875032309687814
-0.24745417255291924
-0.2928972621958394
-0.09673167091597946
0.23747561369121417
0.5334351636646874
0.6361261152792532
0.49332240479844996
0.18482082397895117
-0.12051351793563957
-0.25387351977228795
-0.13649206253737067
0.17859201244170458
0.5325737936097347
0.7391268703128269
0.6951760407074894
0.4329412010527115
0.09137293382512547
-0.1486566372823323
-0.16028902973458797
0.06231339617556944
0.40095265831358845
0.675753097855273
0.7403495382380341
0.552364105162966
0.19601662285335453
-0.14332667631125998
-0.294590592556987
-0.1892670067558919
0.10559870382445338
0.4258165383591777
0.5962042297926877
0.5233305060892595
0.24569873281889393
-0.08902059716661982
-0.30235314993208173
-0.28024692582390515
-0.033964340546926826
0.30567936051677735
0.5584261423361921
0.589487663133004
0.3816563623368561
0.044388558174089224
-0.24471668739788838
-0.3328555338534027
-0.1738439379935882
0.1473143141808731
0.460249243850012
0.5988468142083091
0.48927404315683176
0.18927233799405113
-0.14259214263322417
-0.33075453690730355
-0.27593991315018096
-0.0071593088363512275
0.33280852154198476
0.5636126353784985
0.5626520247179275
0.32996173529517764
-0.011310700552732799
-0.28069598398429196
-0.3357453168758822
-0.14735094676089242
0.18441880200448685
0.48352551127411575
0.5913893559205265
0.4507153328919377
0.1359664341523621
-0.18627742061929017
-0.3456830413257858
-0.25806348578237626
0.029742158937102966
0.36523880151812255
0.5701899363446762
0.5358355129438095
0.27997187701745274
-0.06201880304222516
-0.30900470743636815
-0.33049531280275046
-0.11537711715930991
0.2222530085583294
0.5033721400044525
0.579093075640549
0.40900702064461114
0.08302684704178226
-0.2263681795460218
-0.35526782444131677
-0.23569980954810213
0.06923772054554855
0.397514199750519
0.5754732515601769
0.5083566962557541
0.23179106490568652
-0.10794165847348935
-0.33097952984181545
-0.3194008777752538
-0.0795135405506036
0.26112858436716363
0.5221925121113361
0.5651505481334553
0.36722613896517675
0.033321085159833626
-0.2599184007862679
-0.35689314331213673
-0.20645782496767187
0.11187734329049806
0.4292151972859471
0.577383920686088
0.47773171312393026
0.18281506043189366
-0.15118453772203141
-0.3475960181068062
-0.3023154953171518
-0.039572009517396554
0.3015634665607971
0.5402967949819585
0.5504265854368579
0.32658618719527366
-0.012698762287068857
-0.287388642735313
-0.3519237169826123
-0.17187693465317688
0.15739305191257266
0.4613373959885398
0.5790004481427411
0.44786894046849157
0.13772716305841304
-0.18747893852908712
-0.35544100405453877
-0.2772685402495876
0.005679305496598688
0.34354652015761644
0.5571684143068598
0.5334393872454042
0.2848128134495636
-0.05713837617623884
-0.31150457259762443
-0.3435985687845038
-0.1366804729677243
0.19931556487698077
0.48609844830518034
0.5713900742569165
0.41001421271471056
0.08711756832066297
-0.22664098167565822
-0.36532513551850465
-0.2559490088675565
0.04355521350760943
0.3739011955742875
0.5596271615735201
0.5018066638216244
0.23051294553382548
-0.11109394269973011
-0.3427261694641823
-0.3424570959057318
-0.11135381805770639
0.2275666666201422
0.49365678824308
0.5450534059620777
0.3533912011981575
0.019484910592937374
-0.2808094105682629
-0.38947628189239475
-0.2497336870721486
0.06315042368219186
0.38266349093957663
0.5385656309048691
0.44729605170850356
0.1566602606787711
-0.1805255821455996
-0.38628121732334875
-0.35236758036588434
-0.09760923374438073
0.2425944350282409
0.4874476499260939
0.5065800532019586
0.2893080111477082
-0.04948872313519005
-0.3310017567675796
-0.40628953408428414
-0.23611713783661648
0.08927194700861532
0.3969738171187289
0.5236802823611649
0.40203598617552877
0.09628326424256861
-0.2316910529385434
-0.4083580868296
-0.34024319049568597
-0.06362946509171878
0.27492067808164455
0.4960749166000965
0.4827233816787736
0.24152446337785805
-0.0996751207960124
-0.3601489356298929
-0.4017741275910145
-0.20292065340956855
0.13141921140874488
0.42388512786073596
0.5197451820649883
0.36801426695642053
0.04907701258098924
-0.2679797263118615
-0.415101117929784
-0.3144330279753713
-0.01884988831745823
0.31504760162861684
0.5102688232556146
0.4639273448049992
0.2002758061519105
-0.14073519729837958
-0.37831224057843404
-0.38663245172618693
-0.16124081970175008
0.1785708506577075
0.4528427606222378
0.516422633077912
0.33550168962018195
0.006597796190116037
-0.2961413520089556
-0.4123448020362502
-0.2804056984034695
0.030079517716917643
0.3546506289848274
0.5213117005556835
0.4418677579068193
0.15828914245062098
-0.17878753839318312
-0.390832522210253
-0.36528761298160073
-0.1156364207428604
0.22603336048463754
0.4789252702364942
0.5089366422631547
0.3003968450358293
-0.03600331986378074
-0.3222453502369853
-0.4064991606581309
-0.24407597112838675
0.07917523931614188
0.3921094725979151
0.5289311448645936
0.41746284766992475
0.11638774478338784
-0.21429021119800623
-0.3995357606139967
-0.3408526116074153
-0.06957588121266825
0.2709961677263385
0.5004016606645406
0.4974707492250306
0.263661560832075
-0.07665870110360803
-0.3432281705605869
-0.3946514331234644
-0.20330593244814077
0.12932921811475068
0.42726292961101964
0.5332473111122004
0.3911346765449482
0.07655598179807081
-0.2435253592692028
-0.39932622586302857
-0.30807357399031976
-0.017897209183676627
0.3175875385008858
0.5206197813732996
0.4839242399361874
0.2269126897955677
-0.11419902303679769
-0.35859351351393876
-0.3763833809825155
-0.15815646632427927
0.1810277800480182
0.46173715985662644
0.5359802614639804
0.36461485304640334
0.03873451506653522
-0.2684152464548487
-0.39365013815540484
-0.27035302053484794
0.0364113584339643
0.36430168361903414
0.5399997992502882
0.4706751129110359
0.19314652507416347
-0.14514449268140214
-0.36499754224693226
-0.34971578775051276
-0.10706937636064957
0.2344838332179384
0.49430800765017
0.5349680790800628
0.33497911580714823
0.0007845777995131725
-0.290305475513637
-0.38374778605968723
-0.2295197589903335
0.09100075881160138
0.40825965713255535
0.5545624540301841
0.4527338317999521
0.15716746137868876
-0.17527973352850723
-0.36826236902167986
-0.3192316309622982
-0.05354529796249906
0.28840963208581283
0.5259237126231575
0.5336349068487538
0.30775947567785367
-0.03140623907138604
-0.3039853776507234
-0.36531578964814615
-0.18268844197141154
0.1475837063802234
0.4510357839287635
0.5668023060621913
0.4341838640882062
0.12370985616499543
-0.1994076670327511
-0.3638087892207457
-0.2816750365726645
0.004012006186086936
0.34231855948305656
0.5548719442226323
0.5294228179735392
0.2800840073702641
-0.06054437221329485
-0.31186234285221043
-0.34039423141653796
-0.13081769674492721
0.20610288368532337
0.49206358001927364
0.5757650103528383
0.413487411957638
0.09158010343002806
-0.2182086195861357
-0.3511885970107167
-0.23619260682343846
0.06670496190082217
0.39838811544186165
0.5834896417123637
0.524305650856814
0.2524306637999853
-0.08769960673309574
-0.3159333460240042
-0.31141890516201925
-0.07652648433992035
0.2641906428815768
0.5304184987737238
0.5810714144015189
0.3895103756123627
0.05731596918532974
-0.2393888585518787
-0.3428042564739604
-0.19821943837815775
0.11805220849676237
0.43887966223527186
0.5942581048242578
0.5023237361855613
0.21201055043664016
-0.12247012839247465
-0.3237403059599502
-0.2845287555791019
-0.02523502831045501
0.31723097332334976
0.5621534254056596
0.5799696569793473
0.36177758769668894
0.02341529385730454
-0.25542515436199176
-0.3269839166968552
-0.15305383705090467
0.17458308926826654
0.4826631349240363
0.6082487452906719
0.4854619555145637
0.17950736519799484
-0.14690237124798994
-0.3205027253392406
-0.24874830874674453
0.03072609881103163
0.3701232498405054
0.590177194782865
0.5747261540232956
0.3320105127099643
-0.009063452169620907
-0.26759318906761803
-0.3067538615513393
-0.10540660383019243
0.23023861987099214
0.5230050131599959
0.6187007093926566
0.46854677282173335
0.15439168665741587
-0.1536261172259181
-0.2869734415498092
-0.16903513515453183
0.1456791477933405
0.49949770468131305
0.7136776370772943
0.6840056247878435
0.4240002874138465
0.08405983618101985
-0.15078558028888767
-0.15571731581615578
0.07217642074950165
0.4126384734854963
0.6852366093331906
0.7454804667229022
0.5573931018676435
0.20814434274559007
-0.12099518868765832
-0.26385972515272604
-0.15492815860378895
0.13814506380040248
0.4506008388931779
0.610195195776036
0.5272833925299677
0.24517601276443374
-0.08702272984935723
-0.2920623407453415
-0.2598478903820444
-0.00568246729631415
0.3370028312512929
0.5880478064167652
0.6149664730769582
0.40382667738120104
0.06622557800376555
-0.21897030390554695
-0.30075473164944166
-0.13609747651473297
0.18803281008208536
0.49992839359993224
0.6344041979193102
0.5205828400354799
0.21864629133496327
-0.11101649304082564
-0.29339088269324665
-0.23196807501563096
0.041278060873366225
0.38153796680376484
0.6091330190819751
0.60349151026115
0.3680156193266837
0.0277628559637677
-0.2366235647973363
-0.2848512994763208
-0.09118546012618672
0.24197206317010778
0.5385295316954
0.6415401406406345
0.496889151876945
0.18108992189762113
-0.13820141680760242
-0.29156300759998666
-0.19760117544560696
0.09410676661269177
0.4292367709780243
0.6304759522517586
0.5914403290610112
0.33303573897663713
-0.00781772469490468
-0.2502286711555075
-0.26536238123667205
-0.045468440091551196
0.293599579264167
0.5720528648740935
0.6427661739631868
0.46858804547418975
0.14170653482358883
-0.16451950812618943
-0.2875225497418726
-0.16196482680006274
0.14588840964754748
0.47319616039328205
0.6467101944476156
0.5748529161178678
0.2958336495293191
-0.04231759499689986
-0.2603928769484836
-0.24248720885482966
0.002167743826911421
0.34389868588594635
0.6018998889125822
0.6396382911057815
0.43752340615977214
0.1027318200531066
-0.18737564483451566
-0.27880111345494296
-0.12296848709889549
0.1977241538567462
0.513478439009722
0.6571291442463139
0.5527426060210712
0.25570468606053676
-0.07626245389971902
-0.26711094552213716
-0.2157336386458606
0.05106440560595573
0.39223129423140524
0.6272752429785897
0.6318828710791902
0.4038138160011572
0.06412530113489028
-0.20703991080392917
-0.26572659287479633
-0.08066518812728418
0.25036304622057315
0.5520678888513476
0.6647673573814746
0.5289793118855013
0.21689535863486584
-0.10597918631041808
-0.26852309286365555
-0.18439638780354847
0.1016799507043237
0.4385065459327481
0.6476337592717641
0.618237565118459
0.36572891971814886
0.023886564599696812
-0.22608965835723716
-0.2519445141946075
-0.04029490527368695
0.2967515883907063
0.5804500305469963
0.6604504461609413
0.49413223214680346
0.1691618712731061
-0.14235575965445155
-0.27570540805173266
-0.16070162073923797
0.14144528215122
0.4701980672123669
0.6510177977175242
0.5876706273442921
0.3129499000417043
-0.028043736927847764
-0.255707341410049
-0.24991162655330545
-0.014730144122204122
0.3241972668903548
0.5864621925464037
0.6320469896967061
0.4358407362531202
0.10086440041649394
-0.1965841829689282
-0.2998931022587901
-0.15530425275273066
0.15950853216813823
0.4769679205805212
0.6279172816588616
0.5313141809530874
0.23761876408711824
-0.09837427128647466
-0.299420274704957
-0.25950345746116127
-0.0004764438987631542
0.3399313342351654
0.5806960629011747
0.5943142443484652
0.37270452303954843
0.032695672449352946
-0.2460703286618281
-0.3162638800207474
-0.14146930677329295
0.18564069879939515
0.4908938165611851
0.612295680433006
0.4848895448645139
0.17596007772292016
-0.15148612867912356
-0.324220139380554
-0.251273082310213
0.028171101615652453
0.36565182928342416
0.5820623406905574
0.5622373190044722
0.3166399955730849
-0.02493270741784372
-0.2820955760884642
-0.3186898071932367
-0.11563171365313246
0.21929803251039595
0.5083573118305785
0.59798536622842
0.44037082968746066
0.1188607244645605
-0.19656858068721494
-0.33892048350008885
-0.2332245846003785
0.06437827337399699
0.3960781685937105
0.5860007531287006
0.5331814465025939
0.2655291210588941
-0.07563547233769434
-0.30975355321303555
-0.31313929872874613
-0.08402337226802001
0.25569902940014105
0.5258171460709016
0.5829935974030092
0.3966996013899137
0.06534804022988852
-0.2358634478138334
-0.3476482117809945
-0.2111140663255817
0.10097880609232285
0.42302300689089656
0.5841815746096896
0.49837534792827
0.21101373068808355
-0.1258935767587282
-0.33446396987580457
-0.3041880188705866
-0.05178634870082453
0.2887773809405724
0.536789716389772
0.5607094679486438
0.3471820156464216
0.008983854058687155
-0.27486387840995197
-0.3545897768453084
-0.1880235257878555
0.1361115689172131
0.4456371906410555
0.5762307615343912
0.45840012920986695
0.1539422594760149
-0.1761794323412564
-0.3576240414841281
-0.29447424618771684
-0.020823002415499035
0.31790055338327067
0.5420922950931103
0.532388183999091
0.2936935470683096
-0.04837253029039057
-0.3128379071191596
-0.3598015785929023
-0.16509742005637848
0.16775670896247086
0.4620597520801258
0.5614574429707818
0.4129501658519558
0.09485013958700227
-0.22458541162197115
-0.3765479456122184
-0.28078826279273317
0.011351734465331852
0.3450503843738788
0.5428540315099648
0.4997182173332712
0.23804146347223204
-0.10424071612299653
-0.346015058868709
-0.3600293047688791
-0.13907325867800818
0.19925171513877657
0.4752534315598153
0.5423624533030491
0.36481960661397533
0.036542231728240386
-0.2690494969853745
-0.39013621307884316
-0.2628243112226278
0.045184615610831036
0.3705611460614364
0.5405396708751729
0.4647618546836912
0.18298509247912453
-0.15574148606198984
-0.3722949298733693
-0.352211257494484
-0.10654367259514624
0.2343890371191214
0.4896637908649976
0.5238993749916471
0.31855955755896326
-0.017892366008720663
-0.30729571948595
-0.39660940021728847
-0.23862705025881648
0.08259749869736771
0.39687300138839465
0.5375749838899526
0.4298563364182768
0.13077246704624773
-0.20146082030390233
-0.3909851796641674
-0.337621246083358
-0.06986000889733768
0.2702708286822305
0.5024293825218914
0.5033594237851338
0.2724441760433543
-0.06802582664393253
-0.3378548157214069
-0.39440560965510085
-0.207770240306936
0.1228885344126022
0.4224288812666786
0.5318422799875617
0.39306822426643884
0.0795947799155021
-0.24291123643854276
-0.4034990823593626
-0.3172332248618379
-0.030090225369699193
0.3057940281451631
0.512345924054897
0.479893751277904
0.22558618416988588
-0.11602951353450301
-0.36416810594683696
-0.3876437972154066
-0.17425244642127097
0.163243996804625
0.44579198623004024
0.5239210346234818
0.35635290882008125
0.031984868005583804
-0.27685388819776363
-0.406676832336194
-0.2883654642607011
0.015297209072046493
0.3432051428700502
0.5213790318781057
0.4551416748671135
0.17940444150471602
-0.16043794770088332
-0.3839014182718786
-0.3725893412323426
-0.13219840427854346
0.21067366827335898
0.47477489631479297
0.520323578074695
0.3238986983776278
-0.010326232574953284
-0.305289806789546
-0.40509821344813074
-0.2571102582592716
0.05956476384967604
0.37691456923552225
0.5262414286828498
0.42813108072933714
0.13416537885906446
-0.1999679508887833
-0.3975307452953002
-0.3538503553189691
-0.09227130505072784
0.24838618949776314
0.4877643090857706
0.49902476087573305
0.2759090070392408
-0.06357145324144657
-0.3393965880357508
-0.40579949810219207
-0.22743746428645764
0.10121061344235982
0.40627773733641936
0.5261626268783055
0.39723467769482734
0.08817247953996146
-0.2373342513972809
-0.4065451946313671
-0.32983411892526276
-0.04801185327682098
0.2901282400407486
0.5053300973398689
0.48379317827172874
0.2370404529778805
-0.10400933137736668
-0.3583790296826111
-0.39114657697836447
-0.18460383189518517
0.15178476620999448
0.4398840483256513
0.5274158338735928
0.36810035451819406
0.04641647425617014
-0.26711222666129414
-0.4063963940082328
-0.2975548565103242
0.0017240781767503335
0.3329819178316252
0.5209004702613329
0.46616762609545026
0.1986576240695227
-0.13877695392184938
-0.36533283412743683
-0.3578647681519389
-0.11586649848260919
0.23902026247012093
0.526097045732387
0.6023875777899261
0.4376836780331145
0.12828982786109
-0.16421547685130716
-0.2718074942577228
-0.13124730368660847
0.1833306864541786
0.5056822822889064
0.6653471263851782
0.5779338031759734
0.28990521058765767
-0.045757776264202285
-0.25135452729987795
-0.21849363879348313
0.021984363588218495
0.33138453059687445
0.5431992400501281
0.5356169033938916
0.30119074233007687
-0.04500946575817705
-0.3266658136496355
-0.39857846987920414
-0.22352768852771826
0.10653167160652027
0.4183611875990093
0.5483916050096266
0.42860065096024175
0.12299679538328745
-0.20653283694523655
-0.38561209917770556
-0.3195231545826579
-0.04375469820439579
0.29541385069403514
0.5183447639685479
0.506809450597978
0.26741612423992855
-0.0731025356805033
-0.3335784525683877
-0.37583430133241086
-0.17715448407348056
0.15759358859841668
0.4516324018777831
0.5495313096578897
0.3998900657481038
0.08229310517591035
-0.23461351838227346
-0.3825263050304506
-0.2826268620185156
0.012622729288648337
0.34719231122385474
0.5443008722289349
0.5000901735793128
0.23832937904418428
-0.10151944153418534
-0.3387350038362293
-0.34761651346229755
-0.12257670809079146
0.21768427708117363
0.4936631697366838
0.5594764147696354
0.3805189005241354
0.05214999889967942
-0.25135959111528433
-0.368749727758826
-0.23709475378145783
0.07399094527535775
0.40054027644564394
0.5700414909422035
0.49340158185840666
0.21188294930616028
-0.1250177042683707
-0.3380345841034928
-0.31403263113486174
-0.06512467836448965
0.2771727471897881
0.5321921327539467
0.565152220553139
0.35921324645774577
0.024037354385356546
-0.26214874417638395
-0.3472715009969318
-0.18537754281089242
0.13835007580767245
0.45281783758485916
0.5921937561751777
0.48308288405244987
0.18396561012409673
-0.14601893816244058
-0.3314947789538045
-0.2736582437742452
-0.0025241772332288337
0.33895360618497067
0.5704351043632612
0.5701302960606334
0.3386852033685392
-0.0006654484500518022
-0.2674049899868301
-0.3195030004549979
-0.1286557586971984
0.20431864693920593
0.5039979262211609
0.6120177657810825
0.4719034498989193
0.1585545076484959
-0.16145096511385218
-0.3177453753133124
-0.22688378105218707
0.06386462962771722
0.40119740702330353
0.607148628890701
0.5734067075871158
0.31853615434985144
-0.021916219291062907
-0.2667909263521611
-0.2858204973649971
-0.06810091710497812
0.2715566631249096
0.5537622691588981
0.6297347740671007
0.4598616455350653
0.1347054733161647
-0.17283154474893306
-0.29946111819717064
-0.17753727169056366
0.12874884743368067
0.45773343797641886
0.6354477638271718
0.5678961549553171
0.2914643898577437
-0.04732732722407981
-0.2685688910392623
-0.2547630320186796
-0.013189168182312326
0.3285256454470575
0.5895004927688402
0.6316818816440539
0.4327392111280468
0.09827182316171242
-0.19466892770523223
-0.2907177491893184
-0.1390753014121791
0.17979924512919837
0.49690924954920024
0.6440675931825671
0.543173088224287
0.2474066007912705
-0.08678207204295776
-0.2828128090777854
-0.23740338775131423
0.025172404521322175
0.365133379574238
0.6019186050069032
0.6096443022872856
0.38351454088735887
0.04315622593970086
-0.23184639406805113
-0.29613705050721134
-0.11604945663437823
0.2126187310995405
0.5153561528431363
0.6312463246291081
0.4986704503167312
0.18761623144056994
-0.13759481348650407
-0.3047628909490656
-0.22553038607833314
0.057948373144539295
0.3955558097672573
0.6082997314570439
0.5834317365725695
0.334174989900637
-0.007398812441964608
-0.26045430401236425
-0.29055399039623414
-0.08212777565798679
0.2547657511567174
0.5416909230038118
0.6267010358098065
0.4648508719625854
0.14214615596800956
-0.17035397353152215
-0.30675744897996937
-0.19451773923853224
0.10689305630402575
0.43821867254487806
0.6241082420114876
0.5666286326308718
0.29637531167113407
-0.04335897336618446
-0.27242036153205335
-0.2690940950068725
-0.03481807189935516
0.3060627063483223
0.5733364349817761
0.6258005090893577
0.43549303668225725
0.10385662205478635
-0.1933906639596576
-0.2984112629336243
-0.1555250146349089
0.1598448960568477
0.48094937665517945
0.6374762008887136
0.5468479356375161
0.25713898126603457
-0.07822990810668842
-0.28151172632469623
-0.24491763645234385
0.012039798857738933
0.35363792125904614
0.5991758085115333
0.6183073848450035
0.4011995902867882
0.06288359638737084
-0.2173877494634771
-0.29086142502076
-0.1186988217751225
0.20796747111654057
0.515892972628796
0.6421130049100494
0.5197996160867722
0.2136859389026653
-0.11394904903187633
-0.2895873362891487
-0.22039808054825094
0.05725792219571889
0.3961811745445883
0.6168332303508192
0.6021694237645343
0.35997973267541294
0.018462568698327207
-0.2414310027928221
-0.2820143705909093
-0.08198370833420646
0.2527721117496622
0.5446902942685028
0.6391546018286549
0.4861275538050346
0.1665006498552187
-0.15038201181979313
-0.29677339126616864
-0.19529106388252676
0.10036639572014763
0.43337211750671495
0.627149351430261
0.5790736211689036
0.3143635177780493
-0.026763039952097868
-0.26390878450511296
-0.2714100512440236
-0.045502948974171245
0.2939820341271708
0.5671020815242174
0.6289103154819873
0.44655945426662824
0.11636375273309113
-0.1866875178116182
-0.30282594168296156
-0.17045848283287046
0.14025524317191337
0.4642011608685006
0.6295743833512211
0.5486338329190352
0.2642245153043661
-0.07311823274974616
-0.2847992808437016
-0.2587394926517133
-0.008951701508072854
0.33217979864691793
0.5836948406290334
0.6122231819895498
0.4024627071106677
0.06530721459351009
-0.22088239525578807
-0.3047298172379373
-0.14205845268867004
0.1809057578544305
0.4929405205261144
0.6283769402384978
0.5154378928419303
0.21334379004858695
-0.11761314407227619
-0.30259116554653126
-0.24380816340814726
0.027199543603424803
0.366482068326616
0.5941548526552998
0.589101357430699
0.35399204424064323
0.013037700502927504
-0.2534171276818842
-0.30411856532129594
-0.11268936903109827
0.21976676437045312
0.5167180000574186
0.6206157517988281
0.47633487791329765
0.159941073851122
-0.16096726911805778
-0.3167373784122095
-0.22534022981972923
0.06442548916812284
0.3991034703136882
0.6006877712367787
0.5622347111304653
0.3037637300878674
-0.03818788065597646
-0.28273974667826474
-0.3007517935597595
-0.08290108930790253
0.25508226337360174
0.5338051082275728
0.6054667558654891
0.4317226697451687
0.10443414829744666
-0.20325583984734036
-0.3289494864588683
-0.20603691997971893
0.09988727928908735
0.4264927872370288
0.6002745198379008
0.5289269127038349
0.24998735467265434
-0.08874802985843586
-0.30791516469352126
-0.2914850022960756
-0.04807850240131341
0.2934967396625963
0.5520623731026881
0.5902209346976625
0.3876156386422311
0.05098412585569583
-0.24192296543278485
-0.3365598292156311
-0.18361158204194855
0.1359199878414607
0.4525466719902975
0.5984435184769566
0.4967879770829185
0.20119437329249792
-0.1310959093723097
-0.32415363299388844
-0.2755729589456586
-0.011476689074206566
0.32764332272465096
0.5612360941048837
0.5648621578768448
0.3360703332286982
-0.005227499967952508
-0.2786928914580054
-0.3401113362403301
-0.1575752392972314
0.1714852223611677
0.4723273083473659
0.5851313602500346
0.44933310175051017
0.13654530442297544
-0.18820972999882885
-0.35332449538281435
-0.27207656880869624
0.01207938160323389
0.3483532854276777
0.5581094907301967
0.5299802734972288
0.27828716026309963
-0.06379422269277672
-0.31550246829574974
-0.34361505902244566
-0.13373914179054708
0.20255863771376476
0.4869953838561311
0.5682470138244484
0.4029064732003014
0.07801968784499777
-0.23430936650786557
-0.3690784563082691
-0.2552408590933619
0.0466730560186297
0.37633986790642054
0.5593099382148754
0.49807426446224123
0.2249894389924949
-0.11533980882426745
-0.3431809247257644
-0.33789726488187305
-0.10275045046884987
0.23754411797247504
0.5020315894712455
0.5500906961276
0.3556471686283144
0.021347683247335106
-0.27602601963958495
-0.379136689058319
-0.2326936298975949
0.08675677101503486
0.41221255684234764
0.5746434817168489
0.49317166591268485
0.2173996091513355
-0.0988226038203989
-0.2785152764093668
-0.21770538391763408
0.0554273641342221
0.3970017132621834
0.6397062666923292
0.6552888298038413
0.4352976490747455
0.09607984954443796
-0.1829541823355578
-0.25415694369471037
-0.08031955919375022
0.24609000902710937
0.5510717821619713
0.6603351377481931
0.5036426532527658
0.1606335263632119
-0.19649521672793413
-0.39060751001592664
-0.3288023650181941
-0.05095498485899019
0.2906976600734459
0.5136431465929572
0.49982475084905054
0.25773276887042057
-0.08341835179965604
-0.3423861308766103
-0.38182392191834863
-0.18156068845782122
0.1518210887598868
0.4408671309824951
0.5316259399276013
0.37530597937538634
0.05414022694059722
-0.26212144077835353
-0.40650046801130035
-0.30253487320161654
-0.005556813798106394
0.3269811570751415
0.518478212009626
0.46747049741776725
0.20110506245322118
-0.13973424264342577
-0.3745860072510555
-0.3790346547870713
-0.15077937776685857
0.18894663373015358
0.4604145017132549
0.5196239051112201
0.3351669565669908
0.004666668326713724
-0.29698276717610095
-0.40979272137868755
-0.27430859623063686
0.03796803173771267
0.36142851193906855
0.5245457307997964
0.441176889189488
0.1554659828072506
-0.18130408315636634
-0.39066031381102884
-0.3615873950121405
-0.10947641424704868
0.2321891116395134
0.4824491955345335
0.5086323389424225
0.297095177670086
-0.04016489304292765
-0.32410426349753
-0.4044151694627079
-0.2386208786549706
0.08597548922093799
0.3970727439125351
0.5302182062305977
0.414856606895627
0.11230653929273812
-0.21695966179893447
-0.39860671108580026
-0.3361214473566293
-0.062399411756581064
0.27786359602793664
0.5044492191317059
0.4974835526260196
0.2609397961255913
-0.07976357557223117
-0.3438657349345692
-0.39117983211893814
-0.1964957972530221
0.1373612111394484
0.433683421850861
0.5358688252201343
0.38998513603574136
0.07361937150317664
-0.24550318489424386
-0.39805581915144317
-0.30307070158536176
-0.010512250712917282
0.3248175468901333
0.5254858311769006
0.4856434575965654
0.22692344343680862
-0.11335650301916796
-0.35456779937745003
-0.36822608181742933
-0.14679077200225027
0.1928162840276916
0.47109063978539245
0.5409815465990621
0.3659357743003025
0.03902656544267894
-0.26625435915432033
-0.38785017240062913
-0.2607529819379959
0.04812358450453643
0.37539288275295873
0.5483858236632775
0.475691579443941
0.19655729360106566
-0.14083707782774907
-0.3572854397659843
-0.3374738998205554
-0.09196576428621675
0.2497803767081184
0.5068218760938685
0.5433080746489182
0.3401358166918649
0.004652429283124482
-0.2849050868909014
-0.3751419540608621
-0.2179910204645673
0.1034057194723364
0.41887952237192466
0.5616200333110831
0.45600818889722067
0.15817149766398075
-0.17410866304517827
-0.3644844481985912
-0.31211500919747237
-0.044850448430859724
0.29587567253857044
0.5292539664826595
0.5316564202055521
0.3016140167594057
-0.03932252750399018
-0.31099498634027606
-0.3697397993974346
-0.1848896443674093
0.14526056114970892
0.4451874349911173
0.5555377119113999
0.4174466642283683
0.10358588103721156
-0.22021304527986024
-0.3829871244921093
-0.2989742071055608
-0.013247194137136702
0.32262124886620147
0.5303239558428198
0.4992801716817459
0.2455897067498713
-0.0964773765010756
-0.3460460662130329
-0.37119845866845624
-0.15872025908656565
0.17836129696982012
0.46140715795883314
0.540447299210457
0.37369567060933084
0.04931222525966798
-0.2606483465143684
-0.3919250542136319
-0.27465561494389723
0.02921454765691508
0.35882655793566265
0.5399224651099868
0.4765458454247952
0.2026916771765117
-0.1363346888589877
-0.36067370840123125
-0.35085560144534483
-0.11204593614739082
0.22999657976176396
0.4941071775280411
0.5410167318864144
0.346459964011799
0.01359903707815642
-0.2807749995693525
-0.3803172063011996
-0.23169325279991526
0.0864705436252112
0.4060490436349763
0.5585440191643114
0.46346009470172395
0.1714433061924227
-0.16231617586642125
-0.360456365887884
-0.31761817216168337
-0.056060668472764676
0.2858905040177826
0.5275167862567122
0.5415063750111794
0.3204685655288392
-0.017941848862494742
-0.29408943950909383
-0.3613224402237316
-0.18362373823396003
0.14544990931051274
0.45171577919304046
0.5737323688063567
0.44703380971904205
0.13939171675624776
-0.18572430932694117
-0.35566710543593544
-0.2799967093416791
0.0016264815755265638
0.340513664643963
0.5575622268969286
0.5382394178448278
0.29317762862467767
-0.04744187174524384
-0.302859275184117
-0.3370793672245816
-0.13186694805073781
0.20458741242265482
0.49422870022500914
0.5841011713868257
0.4269028391436916
0.1064427198224877
-0.2072155875241821
-0.3477134509045518
-0.2401559391010255
0.05881543337800854
0.391133125534178
0.5808253923714846
0.5278763556437437
0.26071833000995054
-0.07910880643171617
-0.3110520518324729
-0.3119526612948612
-0.08093315199846447
0.26001995356046814
0.5303621040015891
0.5874099821430316
0.4010368288595753
0.07032782076463565
-0.2293290551523067
-0.33869786971003873
-0.1996652517676592
0.11460951514593838
0.43791428471999055
0.5994522289521969
0.513963362863785
0.22728823713065235
-0.10851316761497887
-0.31522263765054054
-0.28273614800088165
-0.028182734331685284
0.314024280488011
0.5627771975561588
0.5869939295373287
0.37356868758051687
0.036396102863284166
-0.24565145662276516
-0.32314487432384975
-0.1545088423782375
0.17116101858860144
0.4816585399400158
0.613077332940051
0.4958884274438371
0.1924624217871793
-0.13587811984958983
-0.3148756721350128
-0.24929272152254855
0.026497984857033044
0.3663834565215349
0.5909059080750036
0.5813220936099182
0.3430278801418409
0.002720892955436739
-0.25903534267372813
-0.3032108327961001
-0.10620524369612902
0.22792277604409567
0.5226623625006748
0.6220082449388776
0.4735453031906333
0.15625631393689193
-0.161617390353004
-0.3116077721773751
-0.21349318247430737
0.0805578155411007
0.41516965659386934
0.6133345445219596
0.5704254417899158
0.30956727601998724
-0.03087077519680758
-0.27036406725110906
-0.28149348169317157
-0.05830090766938323
0.2813085575567429
0.5576114148832245
0.6243571490879531
0.44634563383757425
0.11837664707472055
-0.1856811791126957
-0.3045639211744471
-0.1749101303939138
0.134651491622448
0.46069116144121436
0.6305863559325178
0.5548291990234062
0.2736526805103102
-0.06398882740553888
-0.27897933620889703
-0.25712867970441516
-0.010020026499289715
0.3317251673381125
0.5870519076590038
0.6206239574415398
0.41487375575847846
0.07911348498786891
-0.20882724204038844
-0.2961941900301519
-0.136171110930015
0.18692742390447026
0.5021438009715126
0.643012694272642
0.5354043982299456
0.2365533302002
-0.09506958575629991
-0.28375178918615285
-0.22942276363431613
0.038863112108279224
0.37878058366612943
0.6103564661957539
0.6113439479477729
0.3813766815079546
0.04291469577511882
-0.22391597186738926
-0.27729476040918105
-0.0880770585128299
0.2440635090880045
0.543436312352657
0.6515664104164754
0.5107719490352698
0.195579989846898
-0.12750003783387057
-0.2877605283780681
-0.20076597229209936
0.08731676684050846
0.42350196243373556
0.629422736273892
0.5959743848980255
0.3407536024553032
-0.0011646501973753415
-0.24876394423182707
-0.27135972154829613
-0.056876840717113096
0.2808059901801456
0.5626260041249583
0.639296603817115
0.4699345717929989
0.14432897959068677
-0.16496537211301165
-0.29387881639215707
-0.17429909793322895
0.13037775982942967
0.45884892997907295
0.6371005288230205
0.5706153660489469
0.29458394058500664
-0.04491739359896727
-0.26791425623786386
-0.25659257144945075
-0.016899217689584592
0.32433269051933983
0.5859415806314959
0.6298600929304179
0.4325519411144993
0.0985695211585527
-0.19501821418788817
-0.2927889999676477
-0.14284730435099735
0.17522835686527305
0.4924419942856101
0.6409595711101983
0.541715951638451
0.24695850959472354
-0.08779474392140074
-0.28549271599037485
-0.24156117561901908
0.020930989645730515
0.36329276355647105
0.6050360631095328
0.6198787380899649
0.4026540333654189
0.07299784495433605
-0.18839992208578019
-0.2361735728479475
-0.036341472460703926
0.31453409637506996
0.6392547830660379
0.7646748654328984
0.6345091466771123
0.32461370818189766
-0.0008229992765260777
-0.16940658344109044
-0.09204199946139528
0.19010506821160417
0.5273763109491687
0.7406453184936168
0.7162667075064316
0.45843888671533223
0.0883631259492971
-0.20071192845706934
-0.26457407106493225
-0.08127459374053875
0.24123900655983727
0.5247643802713263
0.6131848184001252
0.45740546079409156
0.13976033892248432
-0.17050671796842964
-0.30802885468213603
-0.19872165048318804
0.09982891125127423
0.42891146179147466
0.613516373256173
0.5552432703191224
0.28392830406223424
-0.05736050596194439
-0.2884715917762233
-0.28779175384226924
-0.055906655105071416
0.2840117803154458
0.5515377620728724
0.6047541298231446
0.4150580619348032
0.0829102230562685
-0.21626022020904095
-0.3239807122437999
-0.18344275882368283
0.13050193596341567
0.4512899303875232
0.608666407412905
0.5193423427759039
0.23005052096258288
-0.10602156332573007
-0.31104270710213044
-0.27650870083707646
-0.021044633278042565
0.3198155794922754
0.5653502563143785
0.585154401551235
0.36826386320932736
0.029701579531134926
-0.25196361475755874
-0.3273097024338997
-0.15698778303627825
0.16876162038818734
0.47687777459871006
0.604012188805364
0.4830697929269117
0.17762943188758615
-0.1506278328804839
-0.32793473357099373
-0.26069636609165153
0.015841051374764607
0.35479882875879204
0.5765306718062289
0.5633923700986391
0.3222424152204687
-0.01939170688325207
-0.28091556104883597
-0.32378412440093507
-0.12560746931442682
0.2085300591760381
0.5012449810349395
0.5972599885421901
0.4456008354280585
0.12656069966331343
-0.19115450464972983
-0.339385810824664
-0.2396648499344015
0.055162235396933365
0.3884359430221127
0.583545908213716
0.5369343565018656
0.27317667739441953
-0.06795518188281434
-0.30585242014246017
-0.31481090793872324
-0.090094569639496
0.24913608351532343
0.5230312524751702
0.5863913836892507
0.4056125175872499
0.07633302886628097
-0.22709315124287138
-0.34392545776877764
-0.21233286215919783
0.09786670341214092
0.4224904830369562
0.5894955513903711
0.5101613066370129
0.22650541921822342
-0.11115237226556131
-0.3240789022115912
-0.2994158097485726
-0.05024605745563819
0.29125448568218104
0.5443318452336564
0.5748949924565087
0.36675303133537474
0.030293997752439607
-0.2565510937633378
-0.34191940524930264
-0.18068948179887304
0.14185784045891478
0.45458906726351966
0.5917160876829456
0.480243120833918
0.17898851006037436
-0.15261760493458795
-0.3389890235665675
-0.28215475829101455
-0.012170995154726007
0.3272342951023393
0.5561752804710288
0.5529934440440004
0.3190262884318702
-0.021964503534117517
-0.2896970956150125
-0.3425606981443023
-0.1528952863544602
0.17849418633648378
0.47576202713404925
0.580681456391134
0.43727847052382796
0.120728351580867
-0.20175299965263582
-0.36032619367655067
-0.2717278610295846
0.016183313953212146
0.34998087027533653
0.5518917082199727
0.5141745134696942
0.25552093461029185
-0.08787789231548487
-0.334996819303985
-0.3560330074773523
-0.14077258034171566
0.19546104944002698
0.473714708978186
0.5455157526819681
0.3719685582911297
0.04388400877733591
-0.26553461847896065
-0.39330192138775527
-0.2726196145607786
0.03199060508601604
0.35835226991814195
0.5329880584425595
0.4628264987607954
0.18433128731602316
-0.15550006412563352
-0.3771918959593544
-0.36359221599247293
-0.12239060261520629
0.2183137714400269
0.4778958951834087
0.5180169741340569
0.3177146015447258
-0.01759684628953387
-0.31042251969702134
-0.4057526995272663
-0.2534949649786774
0.06562500767163265
0.3823129547192954
0.5286491735838174
0.4272044861013111
0.1313430108537587
-0.20205836866359125
-0.39659235777363094
-0.349118059000761
-0.08511557427754139
0.25548657859414264
0.49224278074462796
0.49958856579743316
0.27377991267289314
-0.06553808403798399
-0.33903798133188523
-0.40148823969153513
-0.21986325303734702
0.10980202094235816
0.4125951368521589
0.5277610670967439
0.39441613454498003
0.08323176360150498
-0.24105653060231377
-0.40688021039608585
-0.32645540051529653
-0.042330181570205766
0.29491786761761524
0.5067918870923894
0.48070180096029735
0.23068069041348344
-0.11070229008291041
-0.36288825104449146
-0.3922116982109038
-0.18319035274068976
0.15351332359939496
0.4396018206088696
0.5231812310112162
0.36025935131119213
0.03697880011574409
-0.2751627358691725
-0.410920249043812
-0.2982673777401934
0.003026958057324898
0.33341794747829856
0.517948288750952
0.4589180399610092
0.1876450455165199
-0.15232653380889716
-0.38077836824329386
-0.3767297917247939
-0.14210958367438775
0.19877326710247156
0.4651430660437352
0.5160186640105711
0.324443112239274
-0.008195411068270465
-0.30547719541842977
-0.4099046045316989
-0.266298787835613
0.04936204970040801
0.36993397556444996
0.5258358992433321
0.4344729373482075
0.1439875377047745
-0.191516493953706
-0.3940064234632338
-0.3565054745793578
-0.09869298912601737
0.24278560671713423
0.48728627730997576
0.505089844337424
0.2871738954927021
-0.050879532969855146
-0.3299361833964836
-0.4017938977939459
-0.22865197408378207
0.0982303358521386
0.4056306126658317
0.5307692630951069
0.4076270137624388
0.10150719573820716
-0.22520143817063687
-0.39939446975483833
-0.328565356776117
-0.04979336298987606
0.2894071649226718
0.5094138939813664
0.4940100482430797
0.2513156029100361
-0.08984033199302056
-0.34852461107358845
-0.3873682686058362
-0.1857947281439532
0.14965212854082707
0.4414093732615264
0.5351384331538998
0.3814293670981712
0.062040199758025535
-0.2536701793490486
-0.3981443040349507
-0.29435221478726714
0.0029835255792342447
0.3364909806189988
0.5300091796350291
0.48121674035385265
0.21629780386314548
-0.1241038095648947
-0.3595884393432625
-0.36537449926127175
-0.13786843878900656
0.20264195228973556
0.47595224574778544
0.5373625486027382
0.3546266491268148
0.02505613612157232
-0.27660226211069744
-0.390022532680256
-0.2551490943258248
0.05701539236760696
0.38150616916387836
0.5469916976928622
0.46594518456371176
0.18200548672868017
-0.1543551579972212
-0.3643983303084335
-0.3364452764146836
-0.0852384537619627
0.2566227046279175
0.5083367732173376
0.5367863746212745
0.32727831461420487
-0.008771504010716684
-0.29306276557146294
-0.3744344531268698
-0.20942324133206264
0.11508821694324291
0.42732118034349376
0.5623361940317019
0.4488772216290647
0.14738224481788567
-0.18213132917148314
-0.3648972958594861
-0.303969307852684
-0.03124507115048316
0.3090760209029706
0.5372877926763833
0.5327689369135977
0.2984802765436502
-0.040764114515354735
-0.30433897469539045
-0.3519353131346492
-0.157820684927296
0.17571465842477652
0.4722410345418533
0.5751930133599504
0.43010768310639613
0.11368468538554855
-0.20616539713532836
-0.3600025185103561
-0.26558115675300376
0.027831739773111333
0.36557785252653696
0.5697685638024992
0.5329110983395876
0.2757522414612149
-0.0646107031596389
-0.30727682322684646
-0.3234544314569385
-0.10471170944807015
0.23339312246990498
0.5113473808183502
0.5820634118432859
0.4078341900277419
0.08108698888540741
-0.22485955625324378
-0.3477952166811667
-0.22244089176018467
0.08519963586274852
0.41224752504407847
0.5860142294659343
0.5144794867250877
0.2358984024490863
-0.10190086010248725
-0.31975359912253115
-0.3019395724098459
-0.057530073775632885
0.2844389025657323
0.5429695154323247
0.5815847253415103
0.3802543116968486
0.04592837747135964
-0.24392555866578144
-0.3351219198562663
-0.179094530090445
0.14200867459521394
0.4582860830783268
0.6028257237649776
0.49931861966174507
0.20296307752536671
-0.12877750869397497
-0.3198314007603997
-0.26857843696325345
-0.0017462181734300957
0.3398293442751941
0.5756772789952856
0.5811997716163189
0.35403559974533355
0.014632120538686715
-0.25669392610984404
-0.31593725802956196
-0.13139135766300566
0.1993588730133653
0.5008536464405153
0.6138397096215408
0.4788499931515089
0.16821880198381595
-0.15226180969872943
-0.31109973040144107
-0.22122731867163287
0.07398882527083592
0.42406398776232807
0.6505019447898756
0.6416153020890019
0.41209404441842856
0.09204077128228079
-0.1504074346237974
-0.1758313230422314
0.036445100164320024
0.3744545609613675
0.6596563606265468
0.7411839536004797
0.576263712987692
0.2525566708983261
-0.058201150010943
-0.19125870869485836
-0.07733394950197794
0.2078001331661698
0.5066214731490579
0.6569403380322767
0.5694579897465212
0.2798971255342473
-0.06664992117976504
-0.2922347457754646
-0.2804046683525725
-0.03815823244154525
0.30722372892285627
0.5743876479679826
0.62349850553233
0.4298081245512519
0.0959457928907812
-0.20081059553401465
-0.3035885160741214
-0.15800102466936838
0.15861201522734708
0.4780568826017668
0.631397902955085
0.5371407998747563
0.24571598489143193
-0.08850816907953168
-0.2882713630636177
-0.24737021646637136
0.012581500893149723
0.3543172215251095
0.5969224524989978
0.612334591222242
0.39251193060368444
0.05410865038749568
-0.22306765028331263
-0.29200473605338034
-0.11565119788196512
0.2127997264080759
0.5196553979542865
0.6428366853164265
0.5170842079162876
0.20974195966056977
-0.11626501343541498
-0.2880662001063727
-0.21424969356934853
0.06615467723365921
0.4049671423120013
0.6230025795791675
0.6049989360453938
0.36073795775419015
0.020061119180907805
-0.23637316583661924
-0.2722610976119051
-0.0683598672890578
0.2678154876108443
0.5581342647243497
0.6493677342079908
0.4934334005517772
0.17326815405326274
-0.14116774778836816
-0.2832102523933557
-0.17707258319629196
0.12113109061296701
0.4540487333648832
0.6455403222856889
0.5942075283123514
0.32772141700334395
-0.012612194883577746
-0.24625440470925597
-0.24911416570189687
-0.01966215661948701
0.3208152800213536
0.5920121608796417
0.6504998209540538
0.4651918690637814
0.13470596731265727
-0.16566992388191373
-0.276836642866663
-0.13959633456468706
0.17354815743431481
0.49702198589497176
0.659856415464307
0.5758449316943053
0.2897238657901409
-0.04669004055174335
-0.2547854274856769
-0.22411068799125267
0.029454418999786097
0.37181434426976945
0.6217722917846709
0.6472741189700466
0.4350855281121219
0.09776306772209861
-0.18579528002659612
-0.2649401288183881
-0.09782896025429126
0.22710009759347782
0.538076330835661
0.6706599503657904
0.5547788304399393
0.25192567122401077
-0.07694497037747684
-0.257538031512099
-0.19401838506323327
0.08007759790464383
0.41976875637329825
0.6451806256416204
0.6369380721025152
0.3995852436939965
0.05881997841410827
-0.20472180299762738
-0.25144123545063257
-0.05665336729281212
0.2765548335620597
0.5713424525036561
0.6716945035131597
0.5241422867910546
0.20694487516175109
-0.11210519697504874
-0.26417900113039877
-0.16873545349011893
0.12307305988811501
0.4568099464548172
0.6552049430301521
0.6128648455556974
0.3518290655723309
0.009691186030448079
-0.23250378571860403
-0.24690375821541385
-0.026458527281968944
0.3116045772136414
0.5874264238103377
0.6542328767594892
0.4758690691412001
0.14617223194244594
-0.16111471748347567
-0.28408675920090165
-0.15862753862911827
0.1481025344475448
0.4724536484674004
0.6416967681203202
0.5651500093425136
0.2824568369832281
-0.05761361611931371
-0.27581894805997403
-0.257517692699899
-0.013482503179917484
0.326162745094842
0.5804609103366695
0.6141652873585948
0.4084199804506432
0.0715033690359963
-0.21879565253275532
-0.3093664102513543
-0.15285144770537762
0.1671850270871988
0.4807670333748035
0.6210805081189318
0.513062466977126
0.2139021939679699
-0.1188418436181699
-0.3090045188652247
-0.2563728999158481
0.010919771925039193
0.35085971760663637
0.5829233081594903
0.5841294463921182
0.3530994481977225
0.012237010320095491
-0.2582860142721855
-0.3156200959732761
-0.1294598320053701
0.20102689355834885
0.500646794202443
0.6103773762892386
0.47185201792799747
0.1580213401639077
-0.16491835988558995
-0.3262842535242685
-0.24069237542127053
0.04611263441998771
0.38206659404043786
0.5888868872735906
0.5567985767423433
0.30259041073319276
-0.03949843637711
-0.28839862292435453
-0.31265102486230845
-0.09965082436135725
0.23737797201121025
0.5195438648910475
0.597018342810385
0.4284499471707475
0.10265167783931126
-0.2078526779866931
-0.3390175315683376
-0.2216649237197167
0.08148555465681381
0.40973640309535797
0.5886320784435356
0.5230560063945979
0.2474433390869695
-0.0926972116792252
-0.3175718198831631
-0.30849147266964067
-0.07051118690459064
0.2699321990357454
0.5320019229290506
0.5765782015295327
0.3796809861395908
0.04505359053503366
-0.2504221349359014
-0.35070974390632453
-0.20301916880872795
0.11367311705804428
0.4312173762216854
0.5807742257608209
0.4827572673754821
0.18895994689236334
-0.14575483135682088
-0.34435022406074145
-0.30196439643648715
-0.041462631997256305
0.29879617058817526
0.5380805389056346
0.5490317375501175
0.3255512447966182
-0.014442132708334835
-0.2914815003187078
-0.3589530701672583
-0.18171921903228155
0.14586080854701727
0.44975652450513903
0.5686406949065522
0.438900081361481
0.12911342358117386
-0.19726904676239426
-0.3677427393867099
-0.29239726796070376
-0.011448812546084413
0.32610752442086105
0.5407749580185978
0.51865497932758
0.2713107742963369
-0.07081337908362262
-0.32666491976322926
-0.3612148623734645
-0.15639509289349016
0.17875472342622503
0.4665503205321875
0.5538816961337596
0.3940372971853306
0.07164820634433888
-0.24309624779771913
-0.3836354008926698
-0.27599180951112967
0.022092259237783872
0.3530552073238944
0.5407901932455725
0.48575067509643977
0.21681230650350106
-0.12390650354333231
-0.35626095627057397
-0.35750020718091935
-0.12711732208516877
0.21229065628960453
0.48056912066661467
0.5352500055032604
0.34672949577769574
0.014644073260178019
-0.2856299353924737
-0.3949087793711889
-0.25605857610600696
0.05736348103253169
0.37902362356808816
0.5382476047254564
0.4505959381716799
0.16226000375304733
-0.1739700837736332
-0.3806642349553558
-0.3483251016086199
-0.09440944726062851
0.24626169266390824
0.4927898757645497
0.5141532248332906
0.29877759982760554
-0.039447236044972925
-0.32171924702670557
-0.39883276272397117
-0.2298076238609247
0.0953686282071854
0.40414367929762546
0.5328692342178344
0.4131026622556012
0.10810838464917145
-0.22095435689944073
-0.39991308993388297
-0.33421088175338365
-0.05890029861764902
0.2799851749880091
0.5026155015968814
0.49099010481384014
0.2507151195659328
-0.09107560451241567
-0.3535476810848247
-0.3978221054171027
-0.20054373147215301
0.1333688933865548
0.42723674256211447
0.5253655293451053
0.3758453605063531
0.058008362290011176
-0.25996174521883736
-0.40953835200981303
-0.31169012058356904
-0.018369520323587102
0.3145761624513328
0.5102666845703103
0.46493468468700655
0.2022711939487215
-0.13864176656119037
-0.37710859725701495
-0.38670664944645344
-0.16188819231439097
0.17837813787592577
0.45417951945915447
0.5201072078117492
0.34091965567904153
0.011496762013684096
-0.293766003736346
-0.4134805446944347
-0.2848581525967615
0.023788617069594044
0.34801001146075344
0.5159298603346806
0.4382508001225186
0.15592158699359657
-0.18195923847497683
-0.39660509137204947
-0.3744613959509868
-0.127280317082393
0.21377525104257458
0.4677210025236917
0.49970819079641243
0.29289785367000565
-0.04355185132486389
-0.3315431533044392
-0.41824961659632776
-0.2580870205384138
0.06421013848845288
0.37760120799725283
0.5163029951081469
0.4064232985801351
0.10657721101441614
-0.22467120074494662
-0.4115566800920459
-0.35520055426812347
-0.08509992806293012
0.2555631028868881
0.48662519115435243
0.485848613986958
0.253718645735467
-0.08693613220531857
-0.3556205799847512
-0.41004996067834626
-0.22140246979267816
0.11013861214004227
0.40933776034650077
0.517293734490662
0.37718492840134
0.06317405407165844
-0.2585107382046221
-0.41740687679420235
-0.32953972140103294
-0.04114564844271072
0.29514374850616043
0.5016722160413609
0.46986325775619675
0.2179217019955204
-0.11791014548991333
-0.35606612771616014
-0.3653625802763066
-0.13457480361667595
0.22182398734345155
0.5242829676537207
0.6211364477388105
0.47057426420952825
0.1565039050838271
-0.15146199194308846
-0.2789748209241336
-0.15812791814165286
0.14731080436559324
0.4755229575437465
0.6525421702215604
0.5802053496434845
0.28536595358078426
-0.07997017489432459
-0.33129124708453206
-0.346277865313714
-0.12756058914026427
0.19911586819249238
0.4528826939802874
0.49318069586898633
0.2960779842035166
-0.03425683105724791
-0.322432435207679
-0.4141010773452486
-0.2596363570146892
0.061235376804650896
0.3792976334786267
0.5270208535495372
0.426371053654475
0.1305809942331368
-0.20368051998617476
-0.39977292994759717
-0.35402320672705995
-0.09038658805679103
0.251334288374671
0.4902024073445379
0.500212544766717
0.2760473705129245
-0.0628376232323889
-0.33672786893930906
-0.4001798271151735
-0.21933124328759057
0.11029883172528468
0.41447398491691306
0.5321889205033706
0.40144054538900537
0.09175681831583636
-0.23233743200685075
-0.39867568327825337
-0.3188555859323644
-0.03491836304709842
0.30345576796763607
0.5173921017824549
0.49408273546432974
0.2461098200759677
-0.0944870643601293
-0.3470754614028896
-0.37734980916378746
-0.168859023373036
0.16844092472114297
0.45644259340544235
0.542565695692853
0.3821137185428446
0.06028378292134044
-0.251836528905815
-0.3882825961443173
-0.2765711322417064
0.024852853505933057
0.35686637427059814
0.5438884945689051
0.48742960695270915
0.2178882595826925
-0.1213738492773515
-0.350017656472937
-0.34624054129366344
-0.11184058133084188
0.22952310841810553
0.4978194056379404
0.5513099844493126
0.36227609703258606
0.031165547593692954
-0.2658881124305256
-0.37111046272365006
-0.2279932018112601
0.08809558168431565
0.41027479066470024
0.5684166345242163
0.4794134412863021
0.19086812521793148
-0.14370704459929576
-0.3464327887260016
-0.30929474885819824
-0.05176652608235811
0.290574367983789
0.5368996647571355
0.5573487891004784
0.3416076106404703
0.004770807612125066
-0.27446811271490873
-0.34739597704883757
-0.17465939879297884
0.15301210409145147
0.4625768236485117
0.5907081887510738
0.47047736965017967
0.1661545560079731
-0.16006613274206538
-0.33478820316594265
-0.2646594976409122
0.013833594026891508
0.35365523399948845
0.5755529877531037
0.5625080832354575
0.32198951213889465
-0.018042905898695404
-0.27680941030380435
-0.3166414839450132
-0.11583614405725766
0.21990543781907365
0.5133568637959435
0.6097963022445428
0.4585555044675492
0.14035459888531598
-0.1754819098255296
-0.32118231188039564
-0.219070326627915
0.07714320249244531
0.41105245251162886
0.6062594266064024
0.5596278465433492
0.2960578017883077
-0.04445099063785096
-0.28120427784913515
-0.2885364764359933
-0.06232268182957666
0.2777771358796287
0.5517686998207871
0.6144965771325992
0.432957245279852
0.10322691335707931
-0.20009932203357408
-0.31628172547460387
-0.1839838755308129
0.12653273788393432
0.4505506199713716
0.6164171190384875
0.5359449746017564
0.25142540625029997
-0.08652183987479344
-0.29913760864395317
-0.2740823266605032
-0.024928423209035523
0.31577054563006485
0.5676967975781492
0.5965290212898663
0.38712574599780947
0.049958113714903475
-0.23653948737514074
-0.3206769458449105
-0.15824574013423448
0.1646948933473361
0.47673264389989695
0.6125255476003189
0.5001186397679886
0.19898778282676066
-0.13146862033153073
-0.3160976653786299
-0.25716141561690886
0.014200707475217768
0.35428933484957637
0.5829532063497327
0.5790670910338017
0.3446996934334913
0.004378347559946781
-0.2615317490503864
-0.3120016752304106
-0.12017603858454995
0.21291372908864875
0.5110402902131829
0.6165967564517585
0.4738697191708321
0.15887006041452725
-0.16127204927568925
-0.31672672624209924
-0.2248141629320092
0.06617799095753721
0.4022599049163451
0.6055324426981431
0.568745348097611
0.311758791901331
-0.029154636390626182
-0.27298626489243816
-0.29007907245921355
-0.0711902355075251
0.2679257464908292
0.5480329494941668
0.6212090633214437
0.44875459494855224
0.12248879754876432
-0.1846873121520195
-0.30973269184363095
-0.1860966781934472
0.12080793561717634
0.44869433824223653
0.6241375449687914
0.5544701431109101
0.2767540308764616
-0.06153789585309118
-0.2810461294580653
-0.26516589425337705
-0.022237516523315973
0.3192490894218389
0.5784457743896888
0.6182124920349039
0.41767271459607813
0.083336765267461
-0.20770078486432314
-0.3009480599999399
-0.14710048617702934
0.17281039995157801
0.4893146608146794
0.6346815817158846
0.5321947590568514
0.23608200337543503
-0.09663520081922629
-0.2896845091186699
-0.24054857939506893
0.024807601073099823
0.36594895345725914
0.6021864081367955
0.6085165186093695
0.38156581585604626
0.04151701259256815
-0.23135926560831022
-0.2925591059065419
-0.10973817659662008
0.22027119916396573
0.5225180055050227
0.6370114669619767
0.5028822805959673
0.19148466681966053
-0.13227430067969845
-0.29709875806972597
-0.215539244985347
0.06938263835535294
0.4065107066999709
0.6174045685015056
0.5903549751400986
0.33940321446046484
-0.0022254056041595485
-0.253729668760583
-0.2820573907889662
-0.07233531080375133
0.2645721629908079
0.5499866975218222
0.6325898005360953
0.4685011962338436
0.14468060250059644
-0.16741862569930258
-0.30235893719690865
-0.18899565887005013
0.1126061136154744
0.44245452170795924
0.6259878005134331
0.5656200723544769
0.29323089087327997
-0.04686487441529772
-0.27442656309605196
-0.269048694553438
-0.03363178247479456
0.30707174120124825
0.5724857487723772
0.6219723885116366
0.4291792478236886
0.09616025772726755
-0.20084682501549897
-0.30464598103912194
-0.16015953702277902
0.15559931007687688
0.47537424958849456
0.6296360678407017
0.5364145925183595
0.244961720561579
-0.09053848378227511
-0.2923706184145891
-0.2538902469453818
0.004415638810134813
0.3455815758328334
0.5885817551030027
0.6045658953849158
0.3848816233989577
0.04562054075582564
-0.23356246392879937
-0.3048573923190867
-0.1304198063740148
0.1974438539042323
0.505174662511142
0.6300197947680043
0.5058879259576718
0.19853174616844124
-0.12923135503287342
-0.30415137386358315
-0.23384662044616367
0.043925815378245636
0.38133856673847005
0.5994089279279798
0.5820281790003133
0.33876840224352944
-0.001713362544267641
-0.2586240068342614
-0.29563492206881936
-0.09325750429158028
0.2417114789175056
0.5318313918054929
0.623283711166229
0.4671665697595472
0.145422535859336
-0.17213564310725843
-0.3178612754564974
-0.21523783371123476
0.08050991003660016
0.41226841720961
0.6037336992473747
0.5527686331058779
0.2861621762064446
-0.05541805965990153
-0.2913714880158304
-0.2969983339572999
-0.06979687122106684
0.2696096385403245
0.5408375972225963
0.5998767931563956
0.41508270056915586
0.08404207054278715
-0.21822170230800023
-0.33202877108741147
-0.197218442427777
0.11432457922371453
0.4373461981335006
0.6006698665414691
0.5172648543475573
0.23116291876752756
-0.10638671070370555
-0.31674452170774975
-0.2888735717252199
-0.03784475951239551
0.30316849050662237
0.5532052656684103
0.579483012671987
0.3678778504906773
0.03012644848239518
-0.2550523204783154
-0.33683436676110634
-0.17230953648406253
0.1511443995627686
0.4619559101897445
0.5949954974679547
0.47936904996594204
0.17593028702692173
-0.15517897495823077
-0.3393098172539475
-0.27894988102276863
-0.006517859469994091
0.33333895741498576
0.5614958930382411
0.5579487985398096
0.3267906941636154
-0.006081270412122384
-0.259241889978233
-0.29248678751488516
-0.08024739700053918
0.2740410564741475
0.5910879891317495
0.7107449313454589
0.5663487038516789
0.24937817705683257
-0.07086346155005245
-0.22474974420855817
-0.13122179007956936
0.15982581613260308
0.49377712789517897
0.6931437460224297
0.6500055954070875
0.3723322910085098
0.000625136236411237
-0.2758609138769823
-0.3211499224077251
-0.12265170781250076
0.20340754593593507
0.4763962120040735
0.5469362380472996
0.37583502899166793
0.05340024715603914
-0.2488389995687957
-0.36922220755395513
-0.24299996578650052
0.06361622843832657
0.38828321667262444
0.558610385086068
0.48366565316964416
0.20194090042557145
-0.13770316172816385
-0.35650324882215434
-0.3390088028484284
-0.09506156314906727
0.24579540911924697
0.502546849757461
0.5387564633986325
0.3350417780341823
-0.001034763714488223
-0.2915290316681859
-0.3828975789939332
-0.22708268769936107
0.09326403377833503
0.4083908984905276
0.5509387043477101
0.4453136486216231
0.14741614592204733
-0.18519005041572123
-0.37645264137445245
-0.3254577933091848
-0.059056361902783905
0.2812530686327356
0.5150018115357088
0.5183170927597341
0.2890482535039016
-0.05130194348294153
-0.32252031452842633
-0.3810926003734823
-0.1963949760813686
0.13379432389064475
0.4343427136380718
0.5460044940845108
0.4094090055028125
0.09681015132922885
-0.2262737047577078
-0.3887078964144392
-0.30452284166319743
-0.018519008004500667
0.31780390052290586
0.5262116801276431
0.4960613535926785
0.24333320433988703
-0.09829224978251196
-0.347617120598235
-0.3727316154430709
-0.16038143829012164
0.17706710957920224
0.46057744726674327
0.539983043111314
0.3733849418916586
0.048858230274246385
-0.26170971952562294
-0.3939408496800465
-0.2776734443947263
0.025531615794586522
0.35482456528050516
0.5358733451229939
0.4729641940560484
0.19925501393039144
-0.14019656777019315
-0.3653409686799937
-0.3568176133672516
-0.11911023579414697
0.22210421391216245
0.4860776181451922
0.5332020577505392
0.33865345218852655
0.005563748983975242
-0.28969731051437586
-0.3904028681613516
-0.2430700863708334
0.07436920090882976
0.39385408994233223
0.546305221659825
0.4512560940888429
0.15940368097478896
-0.1745271721602836
-0.37335800731348234
-0.3314611814048545
-0.07081669748861719
0.2706721279656365
0.5121549253858091
0.5260408815768212
0.30509937448247826
-0.03342896772041667
-0.3099422675759363
-0.37806502928060165
-0.20130425792571546
0.1268235254874044
0.4324142488277345
0.5537406740617435
0.4265150810501446
0.11820834830283627
-0.2079506636616788
-0.3792713369126375
-0.3049100319206888
-0.02445314896690793
0.313730851641552
0.5302198501537898
0.5102637705818275
0.26425460835211495
-0.07758090320729161
-0.3341685057846436
-0.36996814572914666
-0.16626459264588658
0.1688565813319985
0.45751209090884887
0.5464364650921633
0.38813670125949995
0.06597226338326737
-0.24996818118897124
-0.3927758544709782
-0.2875002330157135
0.009604412373361938
0.3405270726222329
0.5292700472579102
0.4751830173984018
0.2064207639808968
-0.13521031599816993
-0.3695366142637024
-0.37295324715465
-0.14430159914814777
0.19451926106264467
0.46355004271979106
0.519654918639653
0.3327907130214553
0.0013664710056068563
-0.29961927821587614
-0.41079649958659126
-0.2736655253772162
0.03875126819726192
0.3607544610239964
0.5214147194274348
0.43538449256627326
0.14799194867359025
-0.18873464230887427
-0.3962078787247544
-0.3648617055407015
-0.11134488667334622
0.229957100925267
0.47845423920749447
0.5024707924803898
0.28930187827798937
-0.048018258624306705
-0.3306591876579731
-0.40895406219848185
-0.2409337080721804
0.08451094593215994
0.39477909149119667
0.526166971350714
0.40908634515736064
0.10588449812097664
-0.2225647122738459
-0.4017680668695126
-0.3367299321022996
-0.06146691097578357
0.2787159763810635
0.5037291013298318
0.4946172273486045
0.25661552512819574
-0.08401982714946021
-0.3465796135714549
-0.3915337036953557
-0.19484287613892584
0.139544059530745
0.4347350884613935
0.5346226669622031
0.38672311205878207
0.07000660358676802
-0.24786949118281687
-0.3981352924359675
-0.3008378153862631
-0.007034641840691254
0.3278020889975719
0.5266467241732843
0.4844428256161072
0.22387622273473365
-0.11670449071506872
-0.3565213584712136
-0.3682359743265683
-0.1453689133711868
0.19450809493652133
0.47142353703993756
0.5392420333508582
0.3622874456323697
0.03475899707171677
-0.2693914548807319
-0.3887333332846171
-0.2597221764285721
0.04975450555794185
0.37586553016046775
0.5465850585622893
0.47135986613570524
0.1905496475767244
-0.14688994460293164
-0.3617626240988093
-0.34002074808118543
-0.09284679938114757
0.24921174459609258
0.5050247740325687
0.5394298875573359
0.3346198728056387
-0.0006782063130492261
-0.2886449717274614
-0.3762955695153304
-0.2171032620558713
0.10518665459721857
0.4201113921305265
0.5609750283270589
0.4535918215819584
0.15504978655924317
-0.17599519231656788
-0.36372328928480696
-0.30863106801281087
-0.03937531485478328
0.3015314470012913
0.5340534763597594
0.5351764593284598
0.30473380267932404
-0.035021338367576066
-0.30366540715354146
-0.3586038208440237
-0.17053491866871318
0.1614630195923173
0.46192739364210533
0.571807321628867
0.43339492773044413
0.12035951359263553
-0.2011007936877445
-0.36042530908419407
-0.27272977035055673
0.015649780420412845
0.3524796354002393
0.5595435020743087
0.5277128867477623
0.27410428994095515
-0.06667514335794997
-0.3134442923394937
-0.3352848015800104
-0.12012166974428334
0.21854512607716958
0.5014130412407017
0.5791570973641726
0.4108605503893004
0.08618844650923675
-0.22258996334050676
-0.35152649997180196
-0.2320485261096337
0.07307187287964631
0.4024585168945801
0.5819808518450438
0.5169220763860863
0.2421567653542323
-0.0964447387665253
-0.3191166691172506
-0.3074716206665278
-0.0672157521313928
0.2748576309284574
0.537600299824829
0.5823636210904225
0.38561297604803113
0.05227237287738548
-0.24092836054714267
-0.33806305338674575
-0.18748796527837894
0.13167117009457735
0.45080076478842007
0.6013229340448089
0.504039847138872
0.21080942902136224
-0.12255248555685838
-0.3190560734762279
-0.27433832296750477
-0.011790689537249217
0.3298752966626434
0.5695963581934381
0.5811701038847993
0.35854763218693836
0.019869975957092507
-0.2545250219603017
-0.3187849050691483
-0.13829165255141934
0.1920742246599576
0.4980754350118676
0.6183802716713469
0.48958731620309015
0.18076070618286172
-0.1446709275483391
-0.31386702168299313
-0.23724778837297722
0.044855712931139574
0.38286291093355196
0.5979665072544481
0.5767028127761799
0.33112451768411516
-0.007822500100356337
-0.2596769535871335
-0.2903379091533096
-0.08286664894895035
0.253730567418467
0.5415808804763909
0.6281427415882528
0.46749558301519756
0.14453022441237953
-0.16955895588743702
-0.3086125980864665
-0.19917120156692047
0.1008041388289293
0.43233573093767497
0.6199446961083618
0.5644744887346897
0.2951632941473471
-0.04501338915340473
-0.27584047276638396
-0.27481644598321375
-0.04244641772246924
0.29838371163057187
0.5668691173623105
0.6213193202483868
0.432693543333103
0.10129834625491335
-0.19730355179052467
-0.30434335367919335
-0.1631466776312855
0.15201132898701836
0.474236069143671
0.6332580390149669
0.5452184829932825
0.2570995947644635
-0.07850208852456009
-0.28330392226377826
-0.2487373496952734
0.0072126912634144225
0.348998129793184
0.595971642472889
0.6174532971200124
0.4021181277048321
0.06449063489296666
-0.21637919864721067
-0.29151111365791343
-0.12096162463557775
0.20515196440162237
0.5142134225127843
0.6426738782912782
0.5226165545398699
0.21759763712437527
-0.11090815644046076
-0.28881562761208823
-0.22184900394285925
0.054860597743278394
0.3954808609414767
0.6207730812095175
0.6132400444918433
0.38002028444223374
0.04920316628400593
-0.19770760037187202
-0.2225468096848957
-0.0034071613329708234
0.3534930915855797
0.6674615681276699
0.7701328643156512
0.6197202676467911
0.30159454875327263
-0.01571955454061552
-0.16375917468607176
-0.06404318785413933
0.2306906324185675
0.5642851873097013
0.759949573979698
0.7136550956477739
0.4438077929280729
0.07637557451509154
-0.1961560064814336
-0.23762276094056323
-0.03711700779410786
0.2882155637615393
0.5582747350561839
0.6245278361786046
0.44960837440844975
0.12579027410948773
-0.17413013045004905
-0.29008514612490793
-0.15905816082758284
0.15007349621360214
0.47364517170327375
0.6394469516485896
0.5594748932749218
0.2753528972605983
-0.06323730689666346
-0.2769189704270229
-0.2530549825855089
-0.004568257721097126
0.33703867617822314
0.5906538451663583
0.6219575524097327
0.4143987790303581
0.07798219352375825
-0.20900849215323583
-0.29471831547561933
-0.1335934429791726
0.1891325014174499
0.5023377536481313
0.6402018169597563
0.5296318445523007
0.229300521270337
-0.10161580890353761
-0.28782214536264517
-0.2306710307207881
0.0395774676910689
0.3797676650354254
0.6095881997977085
0.6072927328902427
0.3740578882476092
0.03352023064518072
-0.23401904417556454
-0.2866942140698329
-0.09664773343237759
0.23538857880563563
0.5337948258639659
0.640367378265375
0.49862463869482015
0.1839270357551466
-0.13737965918871187
-0.29499963236555166
-0.20537991894181581
0.08389187071488308
0.41941806112308433
0.6234937556286956
0.5880719991093996
0.33152484059653475
-0.009901632018257459
-0.25549604946459364
-0.27497957784106764
-0.05809818869410844
0.2802421131479132
0.5608862208079107
0.6352010504425674
0.4637761484614188
0.1374198479309119
-0.1709077282092219
-0.2981000194074347
-0.17681723782906023
0.12888184237265699
0.4568656363649011
0.6334177948454914
0.5649455463066801
0.28787774812616845
-0.050871874426571456
-0.271993765951947
-0.25832199082314944
-0.01714508004345546
0.32395695842422595
0.5840095930986824
0.6252131478391827
0.4258453358862775
0.09149327203962453
-0.20092533459965883
-0.2964557397133635
-0.14441497741451065
0.17464265630380962
0.4918834118172262
0.6388020086019971
0.5379559315619079
0.24272141766708252
-0.09048604363551327
-0.2849172576090652
-0.23772119475674677
0.02622100411253963
0.3670388175567034
0.6043504362333744
0.6124292538217136
0.3870098688321038
0.04740634231420253
-0.2264817668365728
-0.28933483508815094
-0.10793105843532727
0.22141174168687566
0.5240151385259386
0.6395955370268256
0.506644267651214
0.19517308354041632
-0.12991832668525394
-0.29685327964939157
-0.21752211155590934
0.0655999892572332
0.4022919534961078
0.6138529730518121
0.5877131172177171
0.33726461707510336
-0.005195137718271691
-0.2585878026047512
-0.2890584258007983
-0.08124537893082129
0.25445131509450425
0.5394604500044479
0.6224560467628203
0.45853236823958443
0.13394568184282893
-0.1802577389941182
-0.31851890030943564
-0.20839329969606823
0.09089617580945206
0.4197369250255438
0.6029007219669056
0.5422910656608259
0.26906925819839134
-0.07303047191853472
-0.3041244507126548
-0.3027025586112401
-0.07069295360241915
0.26775981578835406
0.5324606788257797
0.5819322564127064
0.38906003138493467
0.05511968570676508
-0.24397418002721144
-0.3506257777982349
-0.20906808924860165
0.10469540844987216
0.42382888291626764
0.5783338701260419
0.4856860914685597
0.19391760330592048
-0.14289550060447223
-0.34686760354727353
-0.3107155060558583
-0.0541195706218717
0.28653962278131523
0.5302094284846282
0.5477358338733879
0.32917470203847776
-0.010148200558211739
-0.29081527471185886
-0.3647032987465335
-0.19277506357389473
0.13351188568077052
0.44077655017479056
0.5659970223174111
0.4426522867608032
0.13570351073459483
-0.1922237541006431
-0.36778481620772774
-0.29823161787021735
-0.020728911295041685
0.3176525833320329
0.5373353932586509
0.5216874505555134
0.2787083838820995
-0.0629703079141301
-0.3227458922793258
-0.363066173516762
-0.1628348490680178
0.17163165610684156
0.4629859026883526
0.5565827894353776
0.4027021739948462
0.08265086931091373
-0.23431083983325668
-0.3803592506655408
-0.27873091639290526
0.016801052629025898
0.34936534183610324
0.5425783290800662
0.493806910594247
0.22863660267886357
-0.11254605799086788
-0.3494439524140936
-0.35639105214627487
-0.1301939050350107
0.20886955442869962
0.48138428841961456
0.5423612040559805
0.35931779232736816
0.029127999690331266
-0.2735739287734102
-0.3887718953890791
-0.2554240830369308
0.05524464779097781
0.3787456657715709
0.543738739855739
0.4621705540766173
0.17712667103873672
-0.1605546924680964
-0.37209010698098166
-0.34573989215360634
-0.0957658341980698
0.24522323630999698
0.49614591598890706
0.5241355204391496
0.31397844627568894
-0.023411355039078235
-0.30945850912786604
-0.3927672762149124
-0.22960146970413836
0.09352314134611309
0.405037899181453
0.5398087305025949
0.4263215041163854
0.12426840694991842
-0.2063041871338051
-0.39055816611229965
-0.3311497736478163
-0.059699936900710675
0.279721760288141
0.5073821997785314
0.5020098444023939
0.2666853543359087
-0.07414097499241432
-0.34006245798347695
-0.3902326656318952
-0.19824023585372155
0.13421752357681632
0.43097469105330344
0.5342849221128072
0.389577885887151
0.07325863125702647
-0.24726941687444293
-0.4022677344980091
-0.3100014490823992
-0.019426837909139384
0.31530560521975515
0.5165336095339692
0.47769978135589564
0.21919162821502458
-0.12203706108587736
-0.36527646385589374
-0.38193833674306066
-0.16290928676053223
0.17558653635095076
0.45435327631760686
0.5255800284492974
0.3514853641469517
0.024335014669889084
-0.28279318917811513
-0.4072049862765538
-0.2830387326329654
0.0237632460841712
0.35096609734457607
0.5249989404508867
0.4533191169906792
0.17414747119007815
-0.16468947679405013
-0.3837098433077681
-0.36689733809971076
-0.12316266592140769
0.218414744278207
0.47704630143572063
0.515630270581211
0.3138171598669362
-0.02154925485055305
-0.3126144805111098
-0.40516570781095684
-0.2502058024969235
0.07024761708345553
0.3865509606235329
0.5312045710482804
0.427724900818288
0.13124298088389522
-0.20127718841299208
-0.3934597200803575
-0.3434119330239404
-0.0777035657379329
0.2631261294271352
0.49878791244556964
0.5043198793172003
0.2770397774581196
-0.06257383527765611
-0.3342308538940617
-0.3941165395647383
-0.21036781517046388
0.12006799848983027
0.4222033252788489
0.5358917990995824
0.4011607989794062
0.0894053645135998
-0.23401724465475632
-0.3976049255322282
-0.3147645899630193
-0.029111098502111812
0.3080231910690913
0.5183765897916888
0.49084141173979157
0.24022834481941815
-0.10014372500595628
-0.3497142369937241
-0.3758054426967659
-0.1644338297158661
0.17257407501476196
0.4567221187021792
0.5373891065556421
0.37196924357265937
0.04779748094255288
-0.2631180924896457
-0.3958706619192004
-0.2792363861106927
0.02554245470867124
0.3578683952807078
0.5424149878584853
0.48203201410822216
0.20988158481507335
-0.12955357192808217
-0.35641336329035517
-0.35050832814819644
-0.11526999836237398
0.22478829264674857
0.48929191573336694
0.5377073511849821
0.3443269598782606
0.011468390331560392
-0.2844941256069855
-0.3866280546695122
-0.24095950679890504
0.07550594744792102
0.3953212232191173
0.5490909008024835
0.4556706510143209
0.16486006339408374
-0.16935898616575082
-0.3695104865110255
-0.3293238161850128
-0.06981305833511486
0.271857878396354
0.5148843774550378
0.5307653775156421
0.31129858859590964
-0.026916352310364336
-0.30410691290544883
-0.3733380295423342
-0.19744349058901978
0.1307047862700717
0.4377340738384833
0.5612405300923966
0.4364638583715935
0.1295650490563652
-0.19629211068361085
-0.36835541795484916
-0.2948902787008652
-0.014411568073165522
0.3247814719790071
0.5433858028059109
0.5258426317185532
0.2818934473547691
-0.05905683411699915
-0.3159567383020157
-0.3525981607786253
-0.14941885168023983
0.18629204419495027
0.4764164708867034
0.5679780183319928
0.41310411988697093
0.0946019084357667
-0.21746459995566195
-0.35552198041005006
-0.2430473514259897
0.0653146123470465
0.4125900477694065
0.6221733661329323
0.5923129273223414
0.34847838654243374
0.027632431983123623
-0.20393226132678635
-0.2066521926479004
0.023086216681974435
0.3639245625440064
0.6359029093683553
0.6952211716005549
0.5109567665718966
0.1809300964915098
-0.11980154101591893
-0.23216654526999164
-0.10539745450421166
0.1805663797206906
0.4714836928109858
0.6053109233288091
0.5007636323161293
0.20306709730493733
-0.13715708820549186
-0.3433342819359598
-0.3084771806954271
-0.050149247181195664
0.29577940088420585
0.548230151533385
0.5748365844241807
0.3629255488593114
0.025113873648993815
-0.25954355089230235
-0.3401208345845502
-0.17398133110799233
0.1507221995790028
0.46206601269789205
0.595132819577741
0.4796713913781063
0.17715049359355195
-0.1518853282647112
-0.3326262871132719
-0.26899913553373633
0.005535503070069562
0.3460440192989514
0.5724621450039075
0.5653638190714013
0.32893194993442076
-0.011137373780250405
-0.27426442979339094
-0.32047164321055027
-0.12487593843550601
0.20934584646714965
0.5055739601353234
0.6074116932226357
0.4613220544614323
0.14547063987656544
-0.17261481728416794
-0.324165629771432
-0.22814873369621638
0.06527450819811191
0.4011311853279269
0.601813821993114
0.5615004929556395
0.30231216450040727
-0.03825949383652276
-0.27935847561775706
-0.292813770187246
-0.07125439822605348
0.268586751196195
0.5470045205388262
0.6170203296166581
0.4420435303502573
0.11539011028811794
-0.1895159653296453
-0.3105242290681621
-0.18305540305582033
0.1257904600108311
0.45272468217736805
0.6249348843635889
0.5517763933228419
0.2724980175228919
-0.06449173305909475
-0.2799918530607842
-0.2592238657727573
-0.012800193621662535
0.3293503867806171
0.58635719894586
0.6225472187786051
0.4191455299261617
0.08420512670415131
-0.20433649342616045
-0.29341981200900336
-0.13525601613090635
0.18716051668729525
0.5031877298649198
0.6460225949034806
0.540506507185114
0.2430807342983167
-0.0881118569091755
-0.27704073737217827
-0.22341972918629927
0.04513588183632254
0.386786721200161
0.6211883526050767
0.6247132693244455
0.3959821123952394
0.05678997097158778
-0.21271581377469823
-0.26895292141088906
-0.08194006685667325
0.24991120235658595
0.5513163303985575
0.662918481733815
0.5261250375115032
0.21411021692062246
-0.10756289402420971
-0.26799908722327803
-0.18168692856566712
0.10614131102257066
0.44337312844897026
0.6520381074537781
0.6217772949706434
0.3691795872417086
0.02837593147092892
-0.2197216455709306
-0.24322089735895808
-0.02947719887984513
0.3087050855757465
0.5922360939897863
0.6712099800220116
0.5038813898667192
0.17921910253947013
-0.13074035187855818
-0.2617134914206753
-0.14414266753801414
0.15959641923020762
0.48873413520284487
0.668899954187012
0.6045379687322694
0.32956676719503075
-0.010391489702236016
-0.23543238752751394
-0.22641471556572562
0.011566757543619632
0.35171524135696786
0.6135292882999511
0.6577497139435003
0.4605986893879439
0.12570947205534574
-0.17041663183626932
-0.2714408188689267
-0.12478512772955089
0.1913078817359035
0.5086313755925609
0.658444967887197
0.5606294626438566
0.26634804309126314
-0.06899929279014275
-0.2683581560523461
-0.22671804776750373
0.03325433712486242
0.37310053256980774
0.6124369699113761
0.6239456066747555
0.400766075929541
0.0606037930295464
-0.21658621207037937
-0.28442578441283667
-0.10738157959246097
0.22046713932436096
0.5252472051099207
0.6453045302146663
0.5164821789132291
0.20697817196058466
-0.11959659967641961
-0.29029264115992665
-0.2152364043522143
0.0657501204730616
0.4034702604437006
0.6190282870941304
0.5982274433910508
0.3519495989840917
0.010524717094466604
-0.24520036103345771
-0.2798498039394037
-0.07515604658466019
0.2606267554070495
0.5491835098527955
0.6377346978959855
0.4790968381382379
0.15761204213170635
-0.15662476732108457
-0.29702300211660415
-0.1893490128981546
0.10944246876623162
0.4406832880356179
0.6292414181363594
0.5750153646577146
0.30648304806228116
-0.03388983890655098
-0.26601648376722375
-0.2667795248088115
-0.0360321802342403
0.3041159351684674
0.5734131728344469
0.6289380974323457
0.4412102869772304
0.10947101930264155
-0.19073099375886193
-0.30047789141466297
-0.1620088464208321
0.15121530407442899
0.4730519716768142
0.6328537136635292
0.5457723633829134
0.2578477360638449
-0.07856177361181557
-0.28541558943090983
-0.2531527331662487
0.0010097065560023058
0.34211747555971467
0.5895082885742251
0.611846383108693
0.39695657730150685
0.05842981335649238
-0.2244118981067057
-0.3023648571618746
-0.13429530537574652
0.19041412953099948
0.4994967945187896
0.628824887113677
0.5094553087036509
0.20442910243389792
-0.12498135284507761
-0.304527291395982
-0.2396928157109825
0.035306331938441696
0.3740416659398139
0.5968918876298424
0.5855636550712782
0.34570279790083164
0.004202748505794156
-0.25843634248915864
-0.30335554894658157
-0.10724158120829735
0.22585770693752472
0.5190815907128634
0.6167529304423488
0.46669265189217635
0.14794021202800278
-0.170901894754868
-0.3214851776995161
-0.22408475773097125
0.06917530311329152
0.4025507340177008
0.5991024766073708
0.5541924622885293
0.2913132338541142
-0.05059321037053438
-0.2907773205950409
-0.3022953382755501
-0.07943878300667835
0.2594771065722101
0.5344909846451136
0.5998276691191676
0.4203305143733604
0.09076031513348877
-0.21464367891593286
-0.3342857144152102
-0.2051936523834219
0.1038186064031295
0.4287006043357466
0.5968496326728951
0.5191648729788012
0.23636144208406323
-0.10225958605939055
-0.31762991723352646
-0.29621657299191567
-0.04957134694210533
0.2912964194130959
0.5452463269310406
0.5774425846449819
0.3706062447596853
0.033831996013612343
-0.2546312694971205
-0.3424468807114542
-0.18343814117058974
0.13778861765835912
0.4506868133414818
0.5893621461767043
0.4797859901724664
0.17958595023634208
-0.15240781719653665
-0.34060222740012475
-0.28576332811375327
-0.017311211871249243
0.3224260705485925
0.5529012474766295
0.5517097132886734
0.3192160804774698
-0.021756762889468796
-0.2910962811444459
-0.3464641088175875
-0.15888106184257075
0.1719844347951744
0.47036275765582936
0.5777779061823017
0.4369012610836707
0.12220047288238291
-0.200206180174799
-0.3596813737477725
-0.27224188082828843
0.015546404841626492
0.35080147912841364
0.555576138097036
0.5211895812749058
0.2656472548635236
-0.07595667669017586
-0.3223710822451275
-0.3432996485795068
-0.12775798082903367
0.21015905478431515
0.49134137685380347
0.5664887380208987
0.3951600169024533
0.06771136163865382
-0.24316286801562417
-0.3732928191674344
-0.25415056725351853
0.0506389335013136
0.37974434851799155
0.5588014444374328
0.49325420284251137
0.21785556707952788
-0.1211637887635656
-0.3440678420269946
-0.33289199914181267
-0.09407327530451312
0.24532051518980744
0.5049942232657294
0.5465719465699611
0.3472857101453552
0.011997119416514067
-0.28235702097110127
-0.38016259859798296
-0.2301209728038839
0.08769266199184775
0.40436343903565086
0.5517776149210702
0.4514076956506519
0.1560173789447975
-0.17842745843468752
-0.37514597515734843
-0.3303950445170437
-0.068211898762007
0.27210079174388624
0.5098716663022411
0.5189344198780022
0.2940515660146104
-0.045933771055561214
-0.32089648888336086
-0.385666646247239
-0.2059455227168399
0.12266615205175643
0.42596703856886475
0.5430238558602039
0.41156973055596807
0.10115373708016645
-0.2243377672169645
-0.3927317215069074
-0.3148597860673168
-0.03216894618460614
0.30529699624227635
0.5187814119647772
0.4948162313364821
0.2461441830732809
-0.0957483759735715
-0.34979100341777564
-0.38160986417097764
-0.17451392972425184
0.16156373241458105
0.4481231876543098
0.5332334412507774
0.3711245509515533
0.04774785014408859
-0.2658209488614271
-0.40330446029119676
-0.2911605964715901
0.012792309347537695
0.34972540152846404
0.5451106164756551
0.5009842613815993
0.2473477053909761
-0.07288951870157755
-0.2808864703053695
-0.25791855364861316
-0.014519120652505768
0.3262990087172935
0.5940230494733171
0.6470206513369869
0.4572153667768351
0.1251421172027145
-0.1734116920585017
-0.28049453360898857
-0.13969159383677782
0.17372457838398947
0.48316399944805416
0.6128733135144822
0.4894336449154207
0.16939367920119652
-0.18879413161258482
-0.4064372290319602
-0.3759770446245528
-0.1184509038533315
0.22758364674654608
0.47876723540168764
0.5032006889281426
0.28904712435175983
-0.04857542959325788
-0.3300503385447433
-0.4059831258979989
-0.23630516107452681
0.08857737743847383
0.39586624027078304
0.5221540640585435
0.40029127920342
0.09444582993074965
-0.23331329122053346
-0.4096311862958715
-0.34103514330284795
-0.0637361313538809
0.2753942211546199
0.4967890231108646
0.4831753619462185
0.24170141994381952
-0.0995109584836516
-0.3595730476476026
-0.40079448965450004
-0.2012332963833586
0.13355743705494028
0.4264078195290083
0.5224108455216995
0.3708288359595764
0.05217047212550411
-0.264540063083808
-0.4113062384390803
-0.3102380602813865
-0.014537370760474039
0.31925059816521095
0.5145465600904324
0.4681036031426843
0.20498431990202784
-0.13551080211627375
-0.3725510663624227
-0.38038894167008336
-0.1544982616299425
0.18571214112687934
0.45995670869886124
0.5235131556343375
0.3428613227087991
0.013959541699507673
-0.28855070221446444
-0.4046015593444169
-0.2719510721323344
0.03911788858780336
0.36424490965777206
0.5313691414353365
0.45241855124683955
0.16949130165029647
-0.16734981214217
-0.3790215776221934
-0.35304430428108524
-0.10275018080816517
0.23965941245905614
0.4931872689585909
0.5239640557394257
0.3160073212718241
-0.0200735293504693
-0.30569074235802796
-0.38944170185768884
-0.226284449003971
0.09768848449743209
0.4112359990228405
0.5488226660888206
0.437875204217476
0.13784442374725225
-0.19192379220997283
-0.3762060906182141
-0.3169080660268351
-0.045052532550678114
0.29595222400031995
0.5260895508932742
0.5239053748384084
0.29106714433484115
-0.04854317551674627
-0.31433966850479356
-0.3651979875113459
-0.1734639376682066
0.15978347177411759
0.4587822485208698
0.5656272725819806
0.4243377144911172
0.11022841534309455
-0.20939778492550987
-0.3644139602186375
-0.27237120728812786
0.018553366019656355
0.3548787954353526
0.5590537328629727
0.5236018648767976
0.26770320571901446
-0.0725544308911028
-0.31627484364372055
-0.33384529550554826
-0.11534160181751324
0.22377830613096486
0.5043561223470965
0.5780678588730671
0.40625998550274633
0.08030885137620791
-0.226846293290937
-0.35204242643078953
-0.22874809285421732
0.07796623653376061
0.4058577381605635
0.5813415876684536
0.5117895578506827
0.23430899384728424
-0.10411101031070019
-0.3240357297866604
-0.30892604108614974
-0.0666011100849096
0.2744866947070651
0.5335794875075852
0.5731538622706858
0.37217431777991994
0.03684351416398484
-0.25547873573891317
-0.35047502515770856
-0.1979695499364949
0.12069613843901526
0.4364715598168364
0.5816806125180721
0.47883165917538667
0.18220488059224418
-0.15147862499313822
-0.3455637237856989
-0.29774236895310335
-0.03334076251389426
0.30718301306513307
0.5433228480036519
0.5497921543212843
0.32301652078395765
-0.016831289230022438
-0.28998969616354014
-0.35182600542423603
-0.16951914093842163
0.16021579485316143
0.46306147604324893
0.5782953789941117
0.4451440553763314
0.13422212726125105
-0.18939844695890773
-0.35421291260465654
-0.2726060116420611
0.01235294283604194
0.3499033939908982
0.5616002638207023
0.5355933996806894
0.28576401856028155
-0.05525439942270867
-0.30622055563306516
-0.3339323592929871
-0.12347700777454962
0.2142622525900975
0.5007330021251041
0.5844623787727248
0.42157783326503434
0.09875226308924413
-0.21249073472581348
-0.34700004775917237
-0.2328520255751806
0.06987273138284034
0.4011135335804747
0.5861968611759933
0.5273399239387521
0.25618554351168843
-0.08308138310607618
-0.31023353371088297
-0.304696212214587
-0.06860815052808722
0.2732414231760201
0.5402547410692742
0.5912166135241839
0.3997769878362995
0.06787760670366522
-0.2284276005552871
-0.33152328049346946
-0.18658506765133587
0.1300692532549327
0.45084919075861957
0.6066485673880191
0.5152064892693716
0.22534389479070513
-0.10894258775102286
-0.31032442120524756
-0.27160998711106454
-0.012686549986489798
0.3291432147909014
0.5736458864287215
0.5910527186056385
0.3728712907390919
0.034817072970235605
-0.24365189157445638
-0.31472387027125304
-0.14056023739479803
0.18701478064436217
0.49492368417443466
0.6201702238275512
0.49684197169292427
0.19054990558198745
-0.1360919963479732
-0.3096729529841776
-0.23801033870420177
0.041173029471678176
0.3801717899707172
0.5996461619532927
0.5836723569061517
0.34090042922044334
0.00011080383769297708
-0.25767211603605505
-0.2958959649579148
-0.09367096171095055
0.24187173338953252
0.5334256291333469
0.6265039391158068
0.4722146532381439
0.15220958154472924
-0.16371636554803734
-0.3079702338959947
-0.2042618011794127
0.0930529114997678
0.42651835907610786
0.6197269268914841
0.570469404343585
0.30525657747817775
-0.035140098389516004
-0.2703421188117056
-0.27552626901491023
-0.047829784391615636
0.29245361359220007
0.5652476270732429
0.6259312345917145
0.4427033234064161
0.11251287919561308
-0.18928773136145816
-0.30268683331034785
-0.16765949349508907
0.1444481337644009
0.4684161441650484
0.6328577673947169
0.5508562000779237
0.2660100897932686
-0.07058577515840511
-0.2802461969113834
-0.25199320168003814
-0.0004173540932205094
0.3413376395305933
0.5923101925484494
0.6197270505784074
0.4091840289491962
0.07231690641663269
-0.212320507399509
-0.29382915389687364
-0.12886575033489117
0.19503715687879183
0.5067574080637591
0.6410098443234465
0.5266416378902029
0.22460231911846787
-0.10517717342060445
-0.2876948285312248
-0.22640309828874228
0.046515619009990766
0.38642262553033924
0.6136842410305009
0.6076051446525373
0.3716766582738139
0.031111989331353236
-0.23388334616451806
-0.28260710005521894
-0.089252686401398
0.24357728757914515
0.53965996496342
0.6422733208868967
0.4969887665648871
0.1807247335837679
-0.1387239163774284
-0.29231317424470893
-0.19829240264312165
0.09347349961562765
0.42839451152839936
0.6293677320997655
0.5896882124292008
0.3307112705346041
-0.010611003990394906
-0.25338891376556655
-0.26894243111443905
-0.04916938493585951
0.2895582558606951
0.5677660919116942
0.6381970456569357
0.4632267312056895
0.13576661205146628
-0.17089062725541584
-0.29415897604411223
-0.16894675501278866
0.13843517798754187
0.4652046494656531
0.6377670448787891
0.5651080401257215
0.28532462818643467
-0.053364681145916616
-0.2718786433204014
-0.2545503518838408
-0.010660432542999004
0.330484296684833
0.5881167930682327
0.6258965149504753
0.42376080884267686
0.08908606190418009
-0.20083773238050462
-0.2921987880128971
-0.13686896836646847
0.18307067359763887
0.4975243527629789
0.6396662225529044
0.533767457634526
0.23534077925372077
-0.09734655348724675
-0.28821779772240064
-0.23596596301180456
0.03223482701750061
0.3743803356482172
0.6096616036868412
0.613760865628026
0.384847490031159
0.04393502730897797
-0.2285086111432064
-0.2886781685985609
-0.10523216083510284
0.22396684442612405
0.5240170327540993
0.6356202099041207
0.49889977484032016
0.1858919855327378
-0.13791806023596676
-0.3013448002063203
-0.2183317931810092
0.06695354786107777
0.40280419140088286
0.6108988921546498
0.5805726504856039
0.3274456073714606
-0.014950919622590188
-0.2655375421355577
-0.29193215374772086
-0.0803998171751101
0.25667299886354755
0.5406940223232524
0.6208195731573622
0.45443667125534226
0.12969549314707896
-0.18176458972614123
-0.3149280186462187
-0.19977473611114716
0.102478879902813
0.4314332514246778
0.612522227716575
0.5495134420082728
0.27552899274687676
-0.06446138029801682
-0.2908196923782454
-0.2836137208151941
-0.04692596764103
0.2935283599235089
0.5572578419045384
0.604115642016342
0.4093600148397753
0.07557140174404056
-0.22054088991706888
-0.3224696446161338
-0.1767840967795302
0.13891785028324544
0.456599780008352
0.6077235788048813
0.5116914436478811
0.21973196687112964
-0.11305424187971538
-0.308791141549245
-0.261663006760884
0.006869655995618281
0.3603279518299011
0.6179705140067583
0.6512465256409122
0.45152255619963255
0.13310012463165355
-0.13302857523134332
-0.20196691629786157
-0.026327148080371243
0.3009756476238589
0.6063564981886786
0.7276424867218083
0.6004035721911893
0.2915291851822782
-0.03571247147907636
-0.2087480673079123
-0.13885514106374483
0.11890560313435711
0.4231785900097265
0.6059640237729746
0.5594678455881906
0.2962860705756393
-0.052788484174974816
-0.30969362965081276
-0.341949565414477
-0.1335268617733762
0.20559050458699532
0.4968498653232089
0.5867565352640973
0.4286284373962337
0.10569586819142608
-0.211206527741512
-0.3553816120969745
-0.25090176041083795
0.04564483096860074
0.3763441521518218
0.565413425310174
0.5121692475061823
0.2441682328539288
-0.09703797361444513
-0.33089417934824267
-0.33395073016557963
-0.10496821738938117
0.23464280017440994
0.5045470057801519
0.5615171010620498
0.3748722880226406
0.04338718286256958
-0.25764828120067
-0.36901081463282237
-0.23201491341099859
0.08049425165698154
0.402609121952787
0.5635087623746545
0.47779839066109886
0.19033381367945434
-0.1465681317688973
-0.3549530521296959
-0.32463094326228603
-0.07173011792714158
0.26939218541026033
0.5179428206044012
0.54205352502453
0.3286991117574113
-0.00910522149485819
-0.29293199233503026
-0.37227580812504335
-0.20541481531592706
0.11908526805154189
0.42911110512227774
0.5602403741833772
0.4431063350832204
0.13911122122225597
-0.19039842816153657
-0.37117490088718125
-0.3076230388835777
-0.033603483008156194
0.30542541664323297
0.5299449206845142
0.5209084151965182
0.28290959384706804
-0.05831715260308491
-0.32179702160336404
-0.3681411376446675
-0.17291140663042026
0.16049437389186158
0.45496387719735476
0.5548488086546317
0.40699607650806396
0.08964188334815801
-0.2289785274517161
-0.38011429714744993
-0.28364036322438524
0.00941495597176071
0.34372389477625737
0.5420431407208958
0.49936812306474254
0.2382261687390685
-0.10305490591795535
-0.3437647120983815
-0.35648542716211246
-0.13457684072785178
0.204562824001372
0.48143593677850466
0.5492613673193382
0.37244822580148934
0.04463517900553117
-0.2602631755036064
-0.3804895496236085
-0.2520760268563226
0.05694978789509621
0.38307718339751007
0.5536353158058591
0.47846862332017914
0.19742240202895306
-0.14046646441766164
-0.35640253575887226
-0.3357194120215527
-0.08955935313411166
0.251885138503431
0.5076098098507202
0.5421457157602833
0.3371656966334483
0.001092120717854722
-0.2876650268600603
-0.37617097859948323
-0.21754727372824112
0.10426905843074924
0.4190301327822087
0.5600905238450201
0.4527279363052595
0.15400424463239293
-0.17820166133279
-0.36788278542960245
-0.31462012369483666
-0.046913054740082144
0.2932204008784641
0.5250413969556855
0.5257303553354327
0.29447908965116737
-0.04658607985011457
-0.31706490874569115
-0.3740698249436916
-0.18778134165854887
0.14247650089590955
0.44126938095143914
0.5496923659616998
0.4097714510646123
0.0948391425938526
-0.22865691957326717
-0.3903031899363186
-0.3052074688681918
-0.01923350226344952
0.3152960473602447
0.5204763895744356
0.48671489443986793
0.2311689720387791
-0.11182181356398921
-0.3609519642790837
-0.3851095217819558
-0.1724198238203306
0.16403642623358167
0.44523848389608617
0.5215831071932501
0.352080246240856
0.02607053573135778
-0.2843423244602953
-0.4149311121144377
-0.2969032171540834
0.006872244228055754
0.33522683470797016
0.5138738716530712
0.44821795070438203
0.17269761341264167
-0.1669828943781494
-0.3911063668242538
-0.3807522349117592
-0.14146587666655813
0.19983941779696443
0.462390050126136
0.5073172980521605
0.3106877273077525
-0.02296449188073195
-0.3168481618227952
-0.4152547075212573
-0.26591050752367773
0.05199091637575967
0.37037926516044206
0.5204543508958178
0.422765806653153
0.12910275423948836
-0.2048220692486015
-0.40204027937949965
-0.3578391277038955
-0.09561181273718217
0.24607043165577402
0.48649143305951276
0.49840699912545927
0.27628883471175375
-0.06241553476516731
-0.33748014562420114
-0.4029266126960286
-0.2240614604242036
0.10499529451347515
0.40976216514545044
0.5293011851918568
0.4003482720290654
0.0913468839922868
-0.2335917617399629
-0.40202271331058725
-0.3246829502656467
-0.04231090839585
0.2959517625025988
0.5110965213956024
0.48928078670090125
0.24235696698452056
-0.09864222832443374
-0.3529793144483895
-0.3856446912451609
-0.17901913457723365
0.15755406816746348
0.44605125349400343
0.5341804846627338
0.3751082904732871
0.05379769025690556
-0.25941177077437527
-0.3980894336076138
-0.28839892304149145
0.011604349182778223
0.3436787198947011
0.5318365499814789
0.47700703674896555
0.2082311961873891
-0.13196886175723774
-0.36307439137383585
-0.3625773428781208
-0.13098228642683096
0.20951205743119675
0.4786440729682077
0.533708163514928
0.34618754378282945
0.015192647359580036
-0.2831798275173537
-0.3906264959767777
-0.2496854291815215
0.06526383273295909
0.38771736728907663
0.5473113589961004
0.45985807059598965
0.17218836710049185
-0.1634519978301783
-0.36877006919171224
-0.3348525930673542
-0.07936479918762807
0.2624520950155014
0.5097050700862248
0.5320407617547168
0.3176132149243834
-0.01967191381259535
-0.3005643513281979
-0.3762052867030683
-0.20561585945131455
0.12072926596328012
0.43037834389893054
0.559542520221914
0.4399644259836948
0.13545801790865858
-0.19254835826103608
-0.36997251025341027
-0.3026193479632272
-0.025624956930471253
0.3149027217193066
0.5385702145534018
0.5279074254752735
0.2888903368833453
-0.051392913180201324
-0.31213265114209937
-0.3547423117556572
-0.1564347449881743
0.17780249874956383
0.4713821321831069
0.5689386654570081
0.41891849795516706
0.10107031346895809
-0.215902043453694
-0.36375313073124027
-0.2638690119413012
0.031201207644917756
0.3657631594883369
0.5630862889134358
0.5189517577685792
0.25725749168931106
-0.08286375625000893
-0.3206932416742244
-0.3300442984169417
-0.10533862800251341
0.23504727242921455
0.5106830552327691
0.5761149838351789
0.39690632261982206
0.0685783748897414
-0.23466513878925974
-0.35198716195112306
-0.22090880385103331
0.08971168204548857
0.4157262983120082
0.5847986130838378
0.5078382467951182
0.22611528076709428
-0.11080600056363898
-0.32354689348476895
-0.29937125421873695
-0.05064121835848391
0.2912532878010866
0.5455239345024325
0.5778230083908188
0.3710790748321327
0.035193638735385925
-0.25139773097618584
-0.33640755689066243
-0.17449095532550957
0.1491658168008899
0.463453084511662
0.6023980903824695
0.49277096662652276
0.1932588304023374
-0.13729636260468794
-0.3234104220134164
-0.2661203832981952
0.004550613524899123
0.34549849372718844
0.5764676055690531
0.5756640796653503
0.3437028500677319
0.0036141087305235423
-0.2636008630039202
-0.3163027134214997
-0.12623616357629322
0.2061806959778112
0.505193441329306
0.6128222483911043
0.4723985534720501
0.15882648507502115
-0.16137691406657934
-0.3180610128041044
-0.2274636998843706
0.06249740292262657
0.3986941088781956
0.6034499730547495
0.568492697427317
0.31259589085605255
-0.028741310031042494
-0.2741601113590694
-0.29358735775506095
-0.076007696351352
0.2638099208265446
0.5468293481242597
0.6236562015305411
0.4542850191417847
0.1294410913345324
-0.17823930586518744
-0.3054889052779348
-0.18478736948384783
0.12010917893783349
0.4475150241177671
0.6239559480432391
0.5559190626729098
0.27923713432779956
-0.05930046804501001
-0.28019021245884534
-0.26661330598243566
-0.025136776518503857
0.31621693841463727
0.5768453892854797
0.6187268104899771
0.41969952022867396
0.08528252396969202
-0.20738273077123706
-0.30299627415065783
-0.15080582585957597
0.1686454409361697
0.4863433680025377
0.6343594602516965
0.5345165740256648
0.2400424784346106
-0.09282876291440492
-0.2874073796201079
-0.24037123818664527
0.02363671449154927
0.36512470512714623
0.6032139745556467
0.6120559802958665
0.3872244348640793
0.04798241430720664
-0.22555967468690055
-0.288675894333686
-0.10746762349850966
0.2221457486977493
0.5255998364320515
0.6424014412375715
0.5108175993531721
0.20060077231898704
-0.12374678164291486
-0.2901206127649797
-0.2104863970660181
0.07299392495878201
0.41025560485771
0.6224342041131696
0.5976612640187047
0.3493691879341416
0.009783458569909718
-0.23989948138997041
-0.26563573524534617
-0.05058162891232538
0.2956062070092641
0.5953253758462785
0.6964955882984166
0.5543393899591523
0.2528219099159635
-0.03954639956537802
-0.1661500400801436
-0.05396644399956835
0.24710349560675637
0.5781008939864025
0.7636871216419276
0.7056095991103064
0.43479267018974843
0.09435862716987992
-0.1357033374506959
-0.1414889803198088
0.06866227326128543
0.3789052609757805
0.6157168891921758
0.6433350268689383
0.4364510412951104
0.0957067280679299
-0.20465116258780255
-0.30829175234550865
-0.161064205703898
0.15943986450972625
0.48460913267013933
0.643627245580439
0.5537199497871425
0.2635699887452566
-0.07321562467070762
-0.2780975511331784
-0.2430057431323337
0.012899221259377237
0.3533414525641489
0.5978216943745356
0.6163486620577581
0.39885778863974103
0.06065854051356639
-0.21943037266230833
-0.2929644814264925
-0.12119312990642149
0.20510948453603003
0.5130852565669219
0.6395903900188505
0.5174017364140376
0.21125817580356407
-0.1165395413564145
-0.2921666142742244
-0.22271402315727068
0.055128921964689534
0.39401398525551556
0.6145690990590363
0.5998271511747992
0.3575470059069866
0.01608191661710634
-0.24361516748008832
-0.2840898400891254
-0.08396673733628188
0.25050496256666055
0.5421534911046578
0.6363480045107761
0.4832584740806057
0.1637802081880471
-0.15288561727073108
-0.29893014678581564
-0.19713548271614334
0.09871292812971827
0.4318839498288364
0.6256914257707629
0.5775512748402372
0.31265053211617005
-0.02840116920630282
-0.2652094792284903
-0.27234643246867063
-0.045936864029158225
0.29387150287738867
0.5671709639403653
0.6292444486377213
0.44717271491147087
0.11731153995725035
-0.18569766253608883
-0.30118748629609604
-0.1682522149361173
0.1425828025309795
0.46662407725655114
0.6321222307190916
0.5512989613762502
0.2669267375273805
-0.07031169244181057
-0.282029255530685
-0.2557845744929126
-0.005639369668151262
0.33562803251986295
0.5874580253117994
0.6161929153373312
0.40649933656517656
0.06959036399883667
-0.21616499462798822
-0.2995775613073252
-0.13667858068021246
0.18654345215355367
0.49885048624719336
0.6345935358493874
0.5218802223135489
0.22053829731744204
-0.10979819075196756
-0.29397930603343436
-0.2345848013547782
0.03692093611136456
0.37667853181533417
0.6046076826131266
0.6001092351740109
0.3652214720243564
0.02443125440093172
-0.2417131697669957
-0.29210886691227694
-0.100186652081581
0.23222796264019854
0.5290728735783309
0.6329038329674732
0.48872256711378864
0.17275949767431242
-0.14796935998617497
-0.3036278437613638
-0.21211038292740542
0.07813783947717295
0.4129935903781272
0.6148610255627086
0.5765554853624766
0.31806502530011904
-0.023840533812623264
-0.2686028697497021
-0.286755565785863
-0.06910481559136647
0.2686617340660253
0.5471845710253609
0.6182905178612835
0.44392343451757404
0.11582659777688044
-0.19260239034636745
-0.31866653361814734
-0.19632255991594907
0.10886938293548551
0.4343570481789683
0.606969960205157
0.5342042944693464
0.2535252127031444
-0.08736299544388261
-0.3089021453240072
-0.2948202586779478
-0.053586922761923006
0.28567530766891747
0.5423474548495173
0.5793045174853362
0.3759579323781836
0.03892467774207914
-0.2543556606346948
-0.34924267052410646
-0.19686938785227145
0.12131790467079907
0.43565355321202065
0.5786116631486024
0.4738148354526386
0.17568554785539767
-0.158550556017991
-0.3527748598744312
-0.30482237739479773
-0.04070415574974411
0.2989769296525977
0.5335528207123276
0.5380585233226042
0.3099316084650572
-0.030719142405556867
-0.303991304423021
-0.3653793718610172
-0.1830240254810434
0.14600389488231724
0.4471093566833162
0.5600948602749657
0.4246828042587666
0.11209024215322591
-0.21231989057651118
-0.37707591920948696
-0.29521791379936935
-0.010288233290725115
0.3264151672433294
0.536304616630388
0.5077304361842409
0.2559446454615237
-0.08620454923632241
-0.3377954688375246
-0.36587930639535265
-0.15591174425656643
0.1807023093201361
0.46535147810516225
0.5469791331745346
0.3820655374865256
0.057819813937353415
-0.2541594396000855
-0.3888900769056769
-0.27525026704276245
0.02626352554661643
0.3557458034476876
0.5383587933496496
0.4770356180023354
0.2040208342572985
-0.13633179140961266
-0.36381364673353994
-0.35814531361060686
-0.12239703229059362
0.21803913465836347
0.48280630203736646
0.5311938647203075
0.337616885452424
0.004241548010661796
-0.29254019079865823
-0.3958161810907621
-0.2513042671957648
0.06448488796553477
0.3839296964784473
0.5374961264245366
0.44362874400404045
0.1518169241495484
-0.18346257452692644
-0.3849991885016976
-0.3459742874954509
-0.08776382313214937
0.2527718018889335
0.49493843529913334
0.5100374588396893
0.289746246771843
-0.04939023213994351
-0.3279954464460691
-0.3989311894539454
-0.22483623046063644
0.1020998759931774
0.40830394502941064
0.5314086374830419
0.40603101563100125
0.09815089975779184
-0.22927021199616834
-0.402997577585673
-0.33133462484973253
-0.052240938222244904
0.285985517194939
0.5040045380663205
0.48600111769929677
0.2415564198889788
-0.10020104160261763
-0.35866852663065496
-0.39681209557188485
-0.19470985294345355
0.1403349497085322
0.4306182434246329
0.5223345164311084
0.36677952908149325
0.0460696170012406
-0.26982803670314426
-0.41379333920860467
-0.3096492755985453
-0.012694580508332505
0.3193135023949772
0.5106268436414647
0.45946150949687165
0.1929328867677517
-0.14788418965692784
-0.38253168098320706
-0.38687011162616286
-0.1584473815003545
0.1814267468761898
0.45257798872905397
0.5114364736353932
0.326562452179564
-0.004099295162419123
-0.30544185106017246
-0.4179805628311859
-0.2820667265813186
0.03015194954956321
0.35344765369849296
0.5165094128787472
0.4327566225697265
0.14694183945540223
-0.18990573739299316
-0.39920103406385943
-0.37008774317887144
-0.11812607147643733
0.22332763608748585
0.47331358364407033
0.4992337338505694
0.2874134595793433
-0.04999115646467038
-0.3341692831385336
-0.4145999372705717
-0.24861364122354
0.07592262036879782
0.3870529004330168
0.5199039527271634
0.4044866128422007
0.10168473332902836
-0.22788646845043908
-0.40970417174150725
-0.3473368288261153
-0.07364809250418472
0.2662761556198636
0.4926633468903911
0.4855560946824824
0.2492170524201016
-0.09122057774557082
-0.3551533723927916
-0.40254578056367973
-0.20827640187329358
0.12490944216779809
0.42045348391073245
0.5220587318468393
0.37575955980817405
0.0591071334344224
-0.2599545936289505
-0.4124368885413007
-0.31741581642607497
-0.025023168139707667
0.30987355189884636
0.5100916520712775
0.46974157786248016
0.21034473254088334
-0.1303886985416134
-0.37159160463452895
-0.38549550582858066
-0.1646489302418839
0.17450976379850405
0.45206933980008956
0.5212881025442924
0.3457009037220675
0.01822264977217563
-0.2874808745838358
-0.4092544179997433
-0.2823362818602823
0.02631431023494079
0.35328949294684975
0.5256139753570038
0.4521997966282344
0.17210153798137562
-0.16603201837100579
-0.38296139418103053
-0.3635307864011037
-0.11799184338336316
0.22400236855207667
0.4818285171346488
0.5191072239711857
0.31654364797685647
-0.01831522879898833
-0.307263371614135
-0.39697206030987503
-0.23950161137733633
0.08200245242350267
0.39747481335485957
0.5400438697654059
0.4343755661592774
0.13640358903019334
-0.1957862152906779
-0.3858574065850662
-0.3326492139698221
-0.06377972499259199
0.2789262640302066
0.5147430435943713
0.5191566774198947
0.2908673995523008
-0.04869804671893285
-0.31905649390761937
-0.37701511036475716
-0.1916744241193887
0.1389500432298166
0.43952307028460486
0.5507947735576031
0.4137464169512505
0.10129486627221684
-0.22098913420187027
-0.38247918902459144
-0.297296067062482
-0.010560198205738492
0.3261290756205323
0.5345530344528602
0.5042098670973689
0.2515287368403757
-0.08962816906182747
-0.33810576260265973
-0.3620597905289292
-0.14856533535262878
0.18967264394149874
0.4738873779662603
0.5536953874193484
0.3875586894800195
0.06347964783233093
-0.24623142612403026
-0.377253856819867
-0.25977063302267567
0.04434693574126407
0.37433767303972665
0.5558764711080326
0.4929683713363104
0.2196164623135948
-0.11908512000499888
-0.343402273693414
-0.33398227327780017
-0.09535849009054242
0.24635457717750353
0.510510390230941
0.5576706604587551
0.36325804097926456
0.03043485380039735
-0.2638770762764237
-0.36367811067379535
-0.21572089086208118
0.10176483031766465
0.42087620432222006
0.5729722652120469
0.4778821031054178
0.1873807926427262
-0.14331625651902505
-0.33645628773837205
-0.2862392175203522
-0.014211414179482629
0.34215139630477004
0.6020525934567785
0.6373335218853704
0.4388892730662227
0.12068514359899415
-0.14737537529982023
-0.21410091683206794
-0.03614899186964621
0.29272139946859316
0.5989150289777159
0.7205314687151011
0.5934713107843976
0.2853512998650795
-0.04053831588747769
-0.21380906931410626
-0.15856994584086323
0.09104096487231372
0.3957241647309235
0.584318386891633
0.5452541958625124
0.2897339004796072
-0.05310918776890154
-0.3055998443499355
-0.3343800842993976
-0.12378810768213105
0.216303258428036
0.5076297092972561
0.5973417864893185
0.43890617746884286
0.11649597405855752
-0.19912739618760916
-0.3409030885852643
-0.23410106051188523
0.06455053233335091
0.39700042835081695
0.5871281790181735
0.5343977180117326
0.267169593007265
-0.07262525538626458
-0.30455779145177964
-0.305384960138116
-0.07419817640603751
0.2670599907405018
0.5377606803289656
0.5951705051497358
0.409010727694795
0.07868810558000677
-0.22039737495830852
-0.3298747424130771
-0.19103588602076127
0.12279485588536512
0.44594687774728103
0.607359036699999
0.5220550884983626
0.23536203358115615
-0.10031306138062193
-0.3067204136329225
-0.2739953613711927
-0.019315765155621695
0.3231127111818135
0.572102860584409
0.5963258087698241
0.38324566994051784
0.04631445223107682
-0.23534773996095237
-0.31237938049677805
-0.14317276214009328
0.18281323570714186
0.4933574586870251
0.6244138751251672
0.5068995996562323
0.20327134315551373
-0.12516605964155897
-0.3039278250320206
-0.23785822558676936
0.0382211217688455
0.378568904605437
0.6033721125146325
0.5940046959811177
0.355831424653009
0.01546477718160058
-0.24616853723658932
-0.29039045881363146
-0.09316838326936858
0.24159930224794243
0.536629999082689
0.6362639253168727
0.48801271195581336
0.17102351922184048
-0.14668478731873127
-0.2961409505246655
-0.19780852064213225
0.09685833623788848
0.43213842109202444
0.6311142593754243
0.5886778832925272
0.32824333409538037
-0.012309606355821984
-0.25181739429761296
-0.2630160122233852
-0.03963569314519273
0.30038131471135066
0.5770654666013977
0.6444356052574745
0.46705922960304935
0.1394173250797466
-0.1645279027966562
-0.2830938384145994
-0.15308517742548397
0.15686405563270803
0.48318305259317434
0.6534644756153777
0.5778423239206442
0.2969580796714547
-0.03988556603925118
-0.2537800363755111
-0.23097397688415594
0.016900515388311638
