65908.42158651909
65905.36439693788
65887.02125945062
65862.56374280094
65862.56374280094
65843.45630791837
65823.5845756405
65809.06292512977
65786.13400327068
65786.13400327068
65774.66954234114
65758.6192970398
65734.1617803901
65716.58294029815
65716.58294029815
65701.2969923921
65688.30393667196
65692.12542364847
65663.08212262698
65663.08212262698
65668.43220439409
65645.50328253502
65636.33171379138
65623.33865807124
65623.33865807124
65623.33865807124
65623.33865807124
65604.23122318868
65608.0527101652
65608.0527101652
65588.18097788733
65588.18097788733
65594.29535704975
65575.18792216718
65575.18792216718
65584.3594909108
65569.07354300476
65569.07354300476
65583.5951935155
65583.5951935155
65576.7165169578
65567.54494821416
65570.60213779537
65570.60213779537
65574.42362477188
65557.60908207523
65573.65932737658
65574.42362477188
65574.42362477188
65582.06659872491
65572.13073258597
65571.36643519066
65571.36643519066
65571.36643519066
65571.36643519066
65572.13073258597
65577.48081435308
65577.48081435308
65577.48081435308
65597.35254663095
65587.41668049202
65594.29535704975
65601.17403360747
65601.17403360747
65594.29535704975
65610.3456023511
65604.23122318868
65602.70262839807
65602.70262839807
65617.22427890882
65616.45998151352
65615.69568411821
65618.75287369943
65618.75287369943
65626.39584765246
65616.45998151352
65657.73204085986
65629.45303723366
65629.45303723366
65640.15320076789
65650.08906690683
65635.56741639608
65661.55352783637
65661.55352783637
65660.02493304576
65660.02493304576
65673.0179887659
65671.4893939753
65671.4893939753
65680.66096271893
65672.2536913706
65685.24674709074
65685.24674709074
65687.53963927666
65696.71120802028
65699.00410020619
65700.5326949968
65700.5326949968
65710.46856113573
65715.05434550755
65711.23285853103
65706.64707415922
65706.64707415922
65718.11153508876
65724.22591425118
65714.29004811225
65727.2831038324
65727.2831038324
65726.51880643709
65731.1045908089
65747.15483611025
65745.62624131965
65745.62624131965
65741.04045694783
65742.56905173844
65753.26921527267
65735.69037518071
65735.69037518071
65749.44772829616
65739.51186215723
65753.26921527267
65741.04045694783
65741.04045694783
65735.69037518071
65743.33334913374
65748.68343090086
65750.21202569146
65750.21202569146
65746.39053871496
65749.44772829616
65755.56210745858
65759.38359443509
65759.38359443509
65754.03351266797
65759.38359443509
65765.4979735975
65747.15483611025
65747.15483611025
65749.44772829616
65742.56905173844
65753.26921527267
65753.26921527267
65758.6192970398
65748.68343090086
65761.676486621
65758.6192970398
65758.6192970398
65756.32640485388
65749.44772829616
65748.68343090086
65752.50491787738
65752.50491787738
65767.02656838812
65759.38359443509
65756.32640485388
65751.74062048207
65751.74062048207
65769.31946057403
65762.4407840163
65766.26227099281
65759.38359443509
65759.38359443509
65764.73367620222
65766.26227099281
65768.55516317872
65769.31946057403
65769.31946057403
65777.72673192236
65798.36276159552
65777.72673192236
65770.08375796933
65770.08375796933
65775.43383973645
65800.65565378143
65777.72673192236
65780.01962410826
65780.01962410826
65805.24143815324
65807.53433033916
65799.12705899082
65803.71284336263
65803.71284336263
65811.35581731566
65813.64870950158
65821.2916834546
65821.2916834546
65830.46325219823
65815.17730429218
65829.69895480292
65829.69895480292
65829.69895480292
65839.63482094186
65841.16341573246
65850.3349844761
65853.3921740573
65853.3921740573
65847.27779489488
65857.21366103382
65868.67812196336
65863.32804019624
65863.32804019624
65865.62093238215
65861.03514801033
65876.32109591638
65877.08539331169
65877.08539331169
65890.07844903183
65891.60704382243
65890.07844903183
65883.19977247411
65883.19977247411
65900.01431517076
65902.30720735667
65918.35745265802
65902.30720735667
65902.30720735667
65916.0645604721
65921.41464223924
65930.58621098286
65921.41464223924
65921.41464223924
65934.40769795938
65942.0506719124
65958.10091721376
65941.28637451709
65941.28637451709
65957.33661981845
65960.39380939965
65963.45099898087
65957.33661981845
65957.33661981845
65976.44405470102
65985.61562344464
65982.55843386344
65982.55843386344
66003.19446353661
65996.31578697888
65994.02289479297
65996.31578697888
65996.31578697888
66003.19446353661
66004.7230583272
66009.30884269903
66010.07314009433
66010.07314009433
66022.30189841917
66019.24470883796
66032.2377645581
66021.53760102387
66021.53760102387
66030.70916976749
66036.0592515346
66044.46652288294
66047.52371246416
66047.52371246416
66043.70222548764
66052.10949683597
66059.752470789
66055.16668641717
66055.16668641717
66062.8096603702
66074.27412129974
66067.39544474201
66075.80271609034
66075.80271609034
66078.85990567156
66077.33131088095
66083.44569004337
66084.97428483398
66084.97428483398
66085.73858222927
66080.38850046216
66096.43874576352
66100.26023274002
66100.26023274002
66103.31742232124
66100.26023274002
66109.43180148366
66115.54618064608
66115.54618064608
66107.90320669305
66121.6605598085
66114.78188325078
66114.78188325078
66124.7177493897
66119.36766762259
66135.41791292395
66124.7177493897
66124.7177493897
66130.83212855212
66122.4248572038
66127.77493897092
66126.24634418031
66126.24634418031
66133.88931813334
66155.2896452018
66144.58948166757
66145.35377906288
66145.35377906288
66140.76799469106
66138.47510250515
66151.4681582253
66153.76105041121
66153.76105041121
66160.63972696893
66163.69691655014
66166.75410613135
66171.33989050316
66171.33989050316
66166.75410613135
66166.75410613135
66179.74716185148
66182.8043514327
66182.8043514327
66187.39013580451
66194.26881236224
66190.44732538573
66204.96897589647
66204.96897589647
66200.38319152466
66197.32600194345
66213.3762472448
66207.26186808238
66207.26186808238
66216.43343682602
66219.49062640722
66230.95508733676
66223.31211338374
66223.31211338374
66217.96203161661
66216.43343682602
66218.72632901192
66218.72632901192
66219.49062640722
66218.72632901192
66213.3762472448
66206.49757068708
66206.49757068708
66204.96897589647
66185.8615410139
66194.26881236224
66161.40402436422
66161.40402436422
66163.69691655014
66154.5253478065
66137.71080510985
66114.78188325078
66114.78188325078
66102.55312492594
66112.48899106486
66065.86684995142
66038.35214372052
66038.35214372052
66035.2949541393
66023.06619581446
65998.60867916478
65962.68670158557
65962.68670158557
65971.0939729339
65934.40769795938
65917.59315526272
65893.13563861304
65893.13563861304
65875.55679852108
65861.03514801033
65839.63482094186
65816.70589908278
65816.70589908278
65796.06986940962
65780.01962410826
65755.56210745858
65738.74756476193
65738.74756476193
65722.69731946057
65702.06128978741
65688.30393667196
65688.30393667196
65676.07517834712
65671.4893939753
65643.21039034911
65632.51022681488
65632.51022681488
65620.28146849004
65612.63849453701
65597.35254663095
65589.70957267794
65589.70957267794
65575.18792216718
65551.49470291281
65555.31618988932
65548.43751333159
65548.43751333159
65546.14462114568
65541.55883677387
65527.03718626312
65520.1585097054
65520.1585097054
65521.687104496006
65512.515535752376
65504.10826440404
65503.34396700875
65503.34396700875
65511.75123835707
65507.16545398525
65492.64380347451
65508.69404877586
65508.69404877586
65503.34396700875
65501.05107482283
65508.69404877586
65504.10826440404
65504.10826440404
65503.34396700875
65502.57966961344
65512.515535752376
65510.22264356646
65510.22264356646
65512.515535752376
65511.75123835707
65526.27288886782
65532.38726803024
65532.38726803024
65529.33007844903
65529.33007844903
65547.67321593629
65547.67321593629
65537.73734979736
65548.43751333159
65556.08048728462
65551.49470291281
65551.49470291281
65559.13767686582
65566.01635342355
65565.25205602824
65572.13073258597
65572.13073258597
65583.5951935155
65588.18097788733
65596.58824923565
65595.05965444505
65595.05965444505
65608.0527101652
65612.63849453701
65618.75287369943
65616.45998151352
65616.45998151352
65626.39584765246
65628.68873983836
65636.33171379138
65644.73898513972
65644.73898513972
65641.6817955585
65651.61766169744
65664.61071741758
65666.13931220818
65666.13931220818
65669.1965017894
65685.24674709074
65676.07517834712
65694.41831583438
65694.41831583438
65699.00410020619
65702.06128978741
65693.65401843908
65718.11153508876
65718.11153508876
65704.35418197331
65722.69731946057
65728.04740122768
65734.1617803901
65734.1617803901
65733.39748299481
65731.1045908089
65725.75450904178
65725.75450904178
65737.21896997132
65740.27615955254
65738.74756476193
65733.39748299481
65733.39748299481
65742.56905173844
65738.74756476193
65745.62624131965
65745.62624131965
65745.62624131965
65766.26227099281
65749.44772829616
65750.21202569146
65743.33334913374
65743.33334913374
65737.21896997132
65751.74062048207
65751.74062048207
65735.69037518071
65735.69037518071
65739.51186215723
65736.45467257602
65737.21896997132
65731.1045908089
65731.1045908089
65737.21896997132
65746.39053871496
65740.27615955254
65722.69731946057
65722.69731946057
65753.26921527267
65736.45467257602
65736.45467257602
65726.51880643709
65726.51880643709
65743.33334913374
65749.44772829616
65737.21896997132
65737.21896997132
65737.21896997132
65738.74756476193
65749.44772829616
65734.1617803901
65734.1617803901
65743.33334913374
65738.74756476193
65737.21896997132
65748.68343090086
65748.68343090086
65756.32640485388
65743.33334913374
65740.27615955254
65749.44772829616
65749.44772829616
65757.09070224919
65754.03351266797
65747.15483611025
65756.32640485388
65756.32640485388
65764.73367620222
65762.4407840163
65767.02656838812
65761.676486621
65761.676486621
65761.676486621
65768.55516317872
65768.55516317872
65777.72673192236
65777.72673192236
65787.66259806129
65778.49102931765
65787.66259806129
65776.19813713175
65776.19813713175
65791.4840850378
65792.2483824331
65805.24143815324
65800.65565378143
65800.65565378143
65813.64870950158
65792.2483824331
65815.17730429218
65814.41300689688
65814.41300689688
65823.5845756405
65824.34887303581
65836.57763136065
65848.04209229018
65848.04209229018
65864.09233759154
65844.22060531368
65848.04209229018
65848.04209229018
65862.56374280094
65862.56374280094
65862.56374280094
65878.61398810228
65878.61398810228
65874.02820373047
65883.19977247411
65888.54985424122
65877.08539331169
65877.08539331169
65893.13563861304
65907.65728912379
65911.4787761003
65905.36439693788
65905.36439693788
65906.12869433318
65937.46488754058
65913.0073708909
65916.0645604721
65916.0645604721
65925.23612921574
65946.63645628422
65944.34356409831
65944.34356409831
65944.34356409831
65950.45794326073
65953.51513284195
65958.10091721376
65957.33661981845
65957.33661981845
65973.3868651198
65978.73694688693
65975.67975730571
65977.20835209632
65977.20835209632
65988.67281302586
65988.67281302586
65994.02289479297
66003.19446353661
66003.19446353661
66003.19446353661
66020.00900623326
66015.42322186145
66015.42322186145
66015.42322186145
66017.71611404735
66022.30189841917
66024.59479060507
66024.59479060507
66041.40933330174
66038.35214372052
66046.75941506885
66043.70222548764
66043.70222548764
66060.51676818429
66065.86684995142
66060.51676818429
66066.6311473467
66066.6311473467
66070.45263432323
66080.38850046216
66077.33131088095
66084.97428483398
66084.97428483398
66085.73858222927
66096.43874576352
66089.56006920579
66079.62420306685
66079.62420306685
66094.91015097291
66107.90320669305
66111.72469366956
66081.91709525276
66081.91709525276
66113.25328846017
66130.83212855212
66104.84601711183
66107.90320669305
66107.90320669305
66119.36766762259
66134.65361552864
66129.30353376153
66130.83212855212
66130.83212855212
66128.53923636622
66143.82518427227
66141.53229208637
66141.53229208637
66141.53229208637
66155.2896452018
66143.82518427227
66163.69691655014
66170.57559310786
66170.57559310786
66148.41096864408
66173.63278268906
66175.92567487498
66175.92567487498
66170.57559310786
66175.92567487498
66165.98980873605
66179.74716185148
66179.74716185148
66193.50451496693
66193.50451496693
66198.85459673405
66203.44038110587
66203.44038110587
66212.6119498495
66208.79046287299
66215.66913943071
66197.32600194345
66197.32600194345
66212.6119498495
66213.3762472448
66223.31211338374
66213.3762472448
66213.3762472448
66223.31211338374
66228.66219515086
66233.24797952267
66230.95508733676
66230.95508733676
66237.83376389448
66234.77657431328
66229.42649254616
66234.77657431328
66234.77657431328
66239.36235868509
66252.35541440523
66256.94119877704
66257.70549617235
66257.70549617235
66246.24103524281
66243.9481430569
66248.53392742873
66258.46979356765
66258.46979356765
66236.30516910387
66235.54087170858
66211.84765245419
66221.78351859313
66221.78351859313
66191.97592017634
66192.74021757163
66182.8043514327
66182.8043514327
66178.9828644562
66146.88237385348
66122.4248572038
66115.54618064608
66115.54618064608
66105.61031450714
66077.33131088095
66077.33131088095
66041.40933330174
66041.40933330174
66014.65892446614
65993.25859739767
65986.37992083994
65953.51513284195
65953.51513284195
65946.63645628422
65912.2430734956
65893.13563861304
65867.14952717275
65867.14952717275
65843.45630791837
65832.75614438414
65808.29862773446
65774.66954234114
65774.66954234114
65760.14789183039
65747.15483611025
65724.22591425118
65706.64707415922
65706.64707415922
65697.47550541558
65681.42526011424
65663.08212262698
65656.20344606925
65656.20344606925
65643.21039034911
65623.33865807124
65614.16708932762
65620.28146849004
65620.28146849004
65600.40973621217
65590.47387007323
65581.3023013296
65581.3023013296
65577.48081435308
65573.65932737658
65558.37337947053
65555.31618988932
65555.31618988932
65546.14462114568
65544.61602635508
65529.33007844903
65529.33007844903
65529.33007844903
65535.44445761145
65533.15156542554
65535.44445761145
65522.4514018913
65522.4514018913
65528.56578105373
65543.08743156448
65525.50859147251
65529.33007844903
65529.33007844903
65525.50859147251
65527.03718626312
65524.744294077216
65527.03718626312
65527.03718626312
65541.55883677387
65533.15156542554
65535.44445761145
65535.44445761145
65535.44445761145
65551.49470291281
65554.55189249401
65552.2590003081
65560.66627165643
65560.66627165643
65574.42362477188
65566.01635342355
65570.60213779537
65581.3023013296
65581.3023013296
65598.11684402626
65595.05965444505
65618.75287369943
65609.58130495579
65609.58130495579
65602.70262839807
65612.63849453701
65617.22427890882
65617.22427890882
65633.27452421018
65630.21733462896
65648.56047211622
65650.08906690683
65650.08906690683
65657.73204085986
65650.08906690683
65662.31782523167
65669.1965017894
65669.1965017894
65683.71815230015
65687.53963927666
65686.01104448605
65694.41831583438
65694.41831583438
65693.65401843908
65709.70426374042
65698.23980281089
65707.41137155452
65707.41137155452
65719.64012987936
65731.1045908089
65743.33334913374
65725.75450904178
65725.75450904178
65741.04045694783
65744.09764652904
65744.09764652904
65741.04045694783
65741.04045694783
65764.73367620222
65760.14789183039
65763.20508141161
65761.676486621
65761.676486621
65761.676486621
65763.20508141161
65765.4979735975
65760.14789183039
65760.14789183039
65761.676486621
65765.4979735975
65768.55516317872
65768.55516317872
65774.66954234114
65775.43383973645
65766.26227099281
65769.31946057403
65769.31946057403
65782.31251629417
65766.26227099281
65774.66954234114
65771.61235275994
65771.61235275994
65769.31946057403
65766.26227099281
65762.4407840163
65766.26227099281
65766.26227099281
65765.4979735975
65775.43383973645
65764.73367620222
65758.6192970398
65758.6192970398
65755.56210745858
65765.4979735975
65752.50491787738
65760.14789183039
65760.14789183039
65754.03351266797
65767.02656838812
65768.55516317872
65765.4979735975
65765.4979735975
65767.02656838812
65769.31946057403
65762.4407840163
65758.6192970398
65758.6192970398
65767.02656838812
65763.20508141161
65766.26227099281
65764.73367620222
65764.73367620222
65771.61235275994
65762.4407840163
65776.19813713175
65771.61235275994
65771.61235275994
65768.55516317872
65781.54821889887
65776.19813713175
65776.19813713175
65780.01962410826
65783.07681368948
65782.31251629417
65787.66259806129
65787.66259806129
65802.18424857204
65806.00573554855
65813.64870950158
65812.12011471097
65812.12011471097
65806.00573554855
65813.64870950158
65812.12011471097
65800.65565378143
65800.65565378143
65824.34887303581
65822.0559808499
65838.10622615126
65835.04903657004
65835.04903657004
65838.10622615126
65845.74920010428
65847.27779489488
65842.69201052307
65842.69201052307
65848.04209229018
65857.21366103382
65854.1564714526
65860.27085061502
65860.27085061502
65860.27085061502
65871.73531154457
65873.26390633517
65893.13563861304
65893.13563861304
65889.31415163653
65898.48572038015
65888.54985424122
65904.60009954257
65904.60009954257
65898.48572038015
65908.42158651909
65912.2430734956
65912.2430734956
65917.59315526272
65929.05761619225
65935.17199535467
65933.64340056408
65933.64340056408
65932.11480577347
65947.40075367953
65935.17199535467
65942.0506719124
65942.0506719124
65958.10091721376
65961.15810679496
65958.10091721376
65956.57232242315
65956.57232242315
65968.03678335268
65968.03678335268
65980.26554167752
65978.73694688693
65978.73694688693
65985.61562344464
65978.73694688693
65996.31578697888
65993.25859739767
65993.25859739767
65994.02289479297
66010.07314009433
65998.60867916478
66002.4301661413
66002.4301661413
66025.35908800038
66025.35908800038
66022.30189841917
66027.65198018629
66027.65198018629
66043.70222548764
66035.2949541393
66037.58784632522
66046.75941506885
66046.75941506885
66048.28800985945
66051.34519944066
66055.16668641717
66065.86684995142
66065.86684995142
66063.5739577655
66072.74552650914
66069.68833692792
66069.68833692792
66083.44569004337
66072.74552650914
66080.38850046216
66079.62420306685
66079.62420306685
66092.617258787
66088.79577181049
66086.50287962458
66100.26023274002
66100.26023274002
66095.67444836821
66111.72469366956
66106.37461190244
66095.67444836821
66095.67444836821
66119.36766762259
66108.66750408836
66116.31047804139
66117.83907283198
66117.83907283198
66122.4248572038
66127.77493897092
66132.36072334273
66111.72469366956
66111.72469366956
66135.41791292395
66133.88931813334
66149.93956343469
66135.41791292395
66135.41791292395
66147.64667124879
66146.88237385348
66156.81823999241
66156.81823999241
66156.81823999241
66148.41096864408
66157.58253738772
66173.63278268906
66169.81129571256
66169.81129571256
66172.86848529377
66175.92567487498
66183.568648828
66183.568648828
66188.91873059512
66187.39013580451
66170.57559310786
66189.68302799042
66189.68302799042
66187.39013580451
66178.9828644562
66183.568648828
66179.74716185148
66179.74716185148
66190.44732538573
66189.68302799042
66193.50451496693
66167.51840352664
66167.51840352664
66196.56170454815
66195.79740715284
66201.91178631526
66204.96897589647
66204.96897589647
66210.3190576636
66223.31211338374
66229.42649254616
66216.43343682602
66216.43343682602
66226.36930296494
66227.89789775555
66229.42649254616
66210.3190576636
66210.3190576636
66232.48368212736
66239.36235868509
66241.655250871
66251.59111700993
66251.59111700993
66249.29822482402
66257.70549617235
66256.94119877704
66262.29128054416
66262.29128054416
66257.70549617235
66268.40565970658
66267.64136231127
66274.520038869
66274.520038869
66275.2843362643
66262.29128054416
66268.40565970658
66268.40565970658
66278.34152584552
66280.63441803142
66271.4628492878
66256.94119877704
66256.94119877704
66252.35541440523
66240.8909534757
66234.77657431328
66220.25492380252
66220.25492380252
66211.84765245419
66205.73327329177
66186.6258384092
66174.39708008437
66174.39708008437
66159.87542957363
66143.82518427227
66129.30353376153
66109.43180148366
66109.43180148366
66091.85296139169
66062.8096603702
66054.40238902187
66001.665868746
66001.665868746
65996.31578697888
65983.32273125874
65950.45794326073
65928.29331879696
65928.29331879696
65913.0073708909
65884.7283672647
65852.62787666201
65835.04903657004
65835.04903657004
65827.40606261702
65800.65565378143
65790.71978764249
65768.55516317872
65768.55516317872
65741.04045694783
65724.22591425118
65702.06128978741
65678.36807053302
65678.36807053302
65682.18955750954
65658.49633825517
65627.16014504776
65627.16014504776
65634.03882160547
65611.1098997464
65604.23122318868
65602.70262839807
65602.70262839807
65592.00246486384
65581.3023013296
65564.48775863295
65555.31618988932
65555.31618988932
65554.55189249401
65528.56578105373
65536.20875500675
65521.687104496006
65521.687104496006
65537.73734979736
65523.21569928661
65515.572725333586
65510.22264356646
65510.22264356646
65534.68016021615
65514.04413054298
65502.57966961344
65514.04413054298
65514.04413054298
65508.69404877586
65509.458346171166
65513.27983314767
65512.515535752376
65512.515535752376
65530.09437584433
65524.744294077216
65518.629914914796
65522.4514018913
65522.4514018913
65529.33007844903
65525.50859147251
65530.09437584433
65543.08743156448
65543.08743156448
65547.67321593629
65548.43751333159
65557.60908207523
65557.60908207523
65564.48775863295
65559.13767686582
65565.25205602824
65569.07354300476
65569.07354300476
65594.29535704975
65586.65238309672
65593.53105965444
65588.18097788733
65588.18097788733
65601.17403360747
65602.70262839807
65612.63849453701
65613.40279193231
65613.40279193231
65623.33865807124
65628.68873983836
65655.43914867395
65631.74592941957
65631.74592941957
65648.56047211622
65653.14625648803
65660.02493304576
65645.50328253502
65645.50328253502
65674.54658355651
65670.72509658
65690.59682885786
65684.48244969544
65684.48244969544
65678.36807053302
65698.23980281089
65698.23980281089
65707.41137155452
65707.41137155452
65715.05434550755
65725.75450904178
65718.11153508876
65725.75450904178
65725.75450904178
65724.22591425118
65731.1045908089
65729.57599601829
65731.1045908089
65731.1045908089
65730.3402934136
65741.04045694783
65747.15483611025
65747.15483611025
65741.04045694783
65739.51186215723
65738.74756476193
65736.45467257602
65736.45467257602
65749.44772829616
65743.33334913374
65738.74756476193
65735.69037518071
65735.69037518071
65737.21896997132
65747.15483611025
65730.3402934136
65733.39748299481
65733.39748299481
65729.57599601829
65718.11153508876
65734.1617803901
65722.69731946057
65722.69731946057
65724.22591425118
65724.22591425118
65714.29004811225
65719.64012987936
65719.64012987936
65716.58294029815
65726.51880643709
65736.45467257602
65717.34723769345
65717.34723769345
65716.58294029815
65727.2831038324
65713.52575071694
65712.76145332164
65712.76145332164
65716.58294029815
65715.05434550755
65713.52575071694
65722.69731946057
65722.69731946057
65725.75450904178
65721.16872466997
65729.57599601829
65724.22591425118
65724.22591425118
65720.40442727467
65724.22591425118
65739.51186215723
65739.51186215723
65737.21896997132
65737.21896997132
65728.04740122768
65732.63318559951
65732.63318559951
65735.69037518071
65736.45467257602
65738.74756476193
65729.57599601829
65729.57599601829
65738.74756476193
65733.39748299481
65739.51186215723
65742.56905173844
65742.56905173844
65750.21202569146
65744.09764652904
65755.56210745858
65754.03351266797
65754.03351266797
65759.38359443509
65759.38359443509
65767.02656838812
65762.4407840163
65762.4407840163
65773.14094755054
65778.49102931765
65778.49102931765
65780.01962410826
65780.01962410826
65788.42689545659
65789.1911928519
65794.54127461901
65801.41995117674
65801.41995117674
65809.06292512977
65801.41995117674
65802.18424857204
65811.35581731566
65811.35581731566
65824.34887303581
65819.763088664
65827.40606261702
65844.22060531368
65844.22060531368
65843.45630791837
65846.51349749959
65850.3349844761
65850.3349844761
65857.21366103382
65861.03514801033
65867.14952717275
65864.09233759154
65864.09233759154
65875.55679852108
65888.54985424122
65887.02125945062
65877.08539331169
65877.08539331169
65885.49266466
65882.4354750788
65903.07150475198
65899.25001777546
65899.25001777546
65901.54290996137
65910.71447870499
65917.59315526272
65913.0073708909
65913.0073708909
65923.70753442514
65926.00042661105
65945.10786149361
65920.65034484393
65920.65034484393
65937.46488754058
65939.7577797265
65940.5220771218
65952.75083544664
65952.75083544664
65951.22224065603
65956.57232242315
65957.33661981845
65953.51513284195
65953.51513284195
65962.68670158557
65970.3296755386
65979.50124428222
65977.20835209632
65977.20835209632
65973.3868651198
65965.74389116679
65983.32273125874
65994.02289479297
65994.02289479297
65999.37297656009
65987.14421823525
65999.37297656009
65999.37297656009
66013.13032967554
65995.55148958358
66011.60173488493
66011.60173488493
66011.60173488493
66008.54454530372
66011.60173488493
66022.30189841917
66019.24470883796
66019.24470883796
66029.18057497688
66031.4734671628
66035.2949541393
66037.58784632522
66037.58784632522
66036.0592515346
66029.18057497688
66050.58090204536
66036.0592515346
66036.0592515346
66041.40933330174
66048.28800985945
66051.34519944066
66044.46652288294
66044.46652288294
66060.51676818429
66051.34519944066
66062.8096603702
66051.34519944066
66051.34519944066
66065.86684995142
66059.752470789
66060.51676818429
66066.6311473467
66066.6311473467
66078.85990567156
66086.50287962458
66089.56006920579
66078.85990567156
66078.85990567156
66086.50287962458
66088.79577181049
66093.3815561823
66093.3815561823
66101.78882753063
66097.96734055413
66100.26023274002
66101.78882753063
66101.78882753063
66101.78882753063
66096.43874576352
66104.84601711183
66116.31047804139
66116.31047804139
66106.37461190244
66126.24634418031
66123.9534519944
66131.59642594743
66131.59642594743
66147.64667124879
66132.36072334273
66131.59642594743
66123.9534519944
66123.9534519944
66147.64667124879
66139.23939990046
66151.4681582253
66148.41096864408
66148.41096864408
66149.93956343469
66152.9967530159
66143.82518427227
66135.41791292395
66135.41791292395
66157.58253738772
66164.46121394544
66165.98980873605
66156.81823999241
66156.81823999241
66173.63278268906
66179.74716185148
66194.26881236224
66180.51145924679
66180.51145924679
66185.8615410139
66204.96897589647
66192.74021757163
66210.3190576636
66210.3190576636
66203.44038110587
66209.5547602683
66202.67608371057
66202.67608371057
66214.90484203541
66208.79046287299
66200.38319152466
66214.90484203541
66214.90484203541
66219.49062640722
66202.67608371057
66204.96897589647
66197.32600194345
66197.32600194345
66182.8043514327
66171.33989050316
66177.45426966558
66165.98980873605
66165.98980873605
66146.88237385348
66137.71080510985
66124.7177493897
66091.85296139169
66091.85296139169
66090.3243666011
66076.56701348565
66050.58090204536
66023.06619581446
66023.06619581446
66020.00900623326
65994.02289479297
65967.27248595738
65939.7577797265
65939.7577797265
65911.4787761003
65909.1858839144
65890.07844903183
65857.21366103382
65857.21366103382
65844.22060531368
65811.35581731566
65782.31251629417
65778.49102931765
65778.49102931765
65744.09764652904
65729.57599601829
65713.52575071694
65713.52575071694
65709.70426374042
65700.5326949968
65648.56047211622
65637.09601118669
65637.09601118669
65644.73898513972
65625.63155025715
65604.23122318868
65579.00940914369
65579.00940914369
65583.5951935155
65559.13767686582
65555.31618988932
65522.4514018913
65522.4514018913
65528.56578105373
65511.75123835707
65512.515535752376
65499.52248003223
65499.52248003223
65491.1152086839
65488.05801910269
65490.3509112886
65473.536368591944
65473.536368591944
65469.71488161543
65478.12215296376
65468.18628682483
65463.60050245301
65463.60050245301
65473.536368591944
65463.60050245301
65451.37174412817
65470.479179010734
65470.479179010734
65463.60050245301
65473.536368591944
65471.24347640604
65473.536368591944
65473.536368591944
65465.12909724362
65476.593558173154
65474.30066598725
65474.30066598725
65483.47223473088
65482.707937335574
65488.05801910269
65492.64380347451
65492.64380347451
65496.46529045102
65516.33702272888
65507.16545398525
65519.39421231009
65519.39421231009
65514.04413054298
65521.687104496006
65521.687104496006
65523.21569928661
65523.21569928661
65542.32313416917
65545.38032375039
65537.73734979736
65561.43056905174
65561.43056905174
65568.30924560946
65567.54494821416
65573.65932737658
65586.65238309672
65586.65238309672
65588.18097788733
65596.58824923565
65604.23122318868
65593.53105965444
65593.53105965444
65620.28146849004
65622.57436067594
65625.63155025715
65627.16014504776
65627.16014504776
65642.4460929538
65652.38195909275
65644.73898513972
65660.02493304576
65660.02493304576
65662.31782523167
65659.26063565045
65661.55352783637
65680.66096271893
65680.66096271893
65678.36807053302
65677.60377313773
65676.07517834712
65676.07517834712
65688.30393667196
65699.00410020619
65702.06128978741
65702.06128978741
65702.06128978741
65700.5326949968
65713.52575071694
65709.70426374042
65700.5326949968
65700.5326949968
65706.64707415922
65701.2969923921
65708.17566894983
65700.5326949968
65700.5326949968
65702.06128978741
65704.35418197331
65707.41137155452
65695.18261322968
65695.18261322968
65711.23285853103
65713.52575071694
65704.35418197331
65692.12542364847
65692.12542364847
65702.06128978741
65696.71120802028
65697.47550541558
65696.71120802028
65696.71120802028
65712.76145332164
65709.70426374042
65698.23980281089
65691.36112625316
65691.36112625316
65699.00410020619
65692.12542364847
65686.01104448605
65692.12542364847
65692.12542364847
65683.71815230015
65690.59682885786
65676.07517834712
65676.07517834712
65687.53963927666
65676.07517834712
65684.48244969544
65678.36807053302
65678.36807053302
65678.36807053302
65673.0179887659
65675.31088095182
65680.66096271893
65680.66096271893
65696.71120802028
65680.66096271893
65689.06823406726
65685.24674709074
65685.24674709074
65691.36112625316
65682.18955750954
65690.59682885786
65695.18261322968
65695.18261322968
65701.2969923921
65704.35418197331
65687.53963927666
65693.65401843908
65693.65401843908
65697.47550541558
65701.2969923921
65705.11847936861
65703.589884578
65703.589884578
65709.70426374042
65720.40442727467
65725.75450904178
65724.22591425118
65724.22591425118
65720.40442727467
65740.27615955254
65740.27615955254
65756.32640485388
65756.32640485388
65742.56905173844
65755.56210745858
65754.03351266797
65754.03351266797
65769.31946057403
65771.61235275994
65760.14789183039
65762.4407840163
65762.4407840163
65773.14094755054
65763.20508141161
65785.36970587538
65780.01962410826
65780.01962410826
65787.66259806129
65797.59846420021
65801.41995117674
65799.12705899082
65799.12705899082
65811.35581731566
65807.53433033916
65815.17730429218
65816.70589908278
65816.70589908278
65811.35581731566
65825.11317043111
65832.75614438414
65829.69895480292
65829.69895480292
65853.3921740573
65847.27779489488
65850.3349844761
65846.51349749959
65846.51349749959
65858.74225582443
65875.55679852108
65871.73531154457
65869.44241935866
65869.44241935866
65879.37828549759
65876.32109591638
65882.4354750788
65904.60009954257
65904.60009954257
65905.36439693788
65896.19282819425
65910.71447870499
65910.71447870499
65914.53596568151
65912.2430734956
65923.70753442514
65921.41464223924
65921.41464223924
65939.7577797265
65927.52902140166
65927.52902140166
65933.64340056408
65933.64340056408
65932.11480577347
65943.579266703
65945.10786149361
65939.7577797265
65939.7577797265
65958.10091721376
65938.22918493589
65967.27248595738
65959.62951200437
65959.62951200437
65971.0939729339
65964.21529637618
65961.15810679496
65957.33661981845
65957.33661981845
65980.26554167752
65986.37992083994
65982.55843386344
65982.55843386344
65982.55843386344
65990.20140781646
65990.20140781646
66014.65892446614
65999.37297656009
65999.37297656009
66000.13727395539
66001.665868746
66017.71611404735
66028.4162775816
66028.4162775816
66022.30189841917
66021.53760102387
66030.70916976749
66032.2377645581
66032.2377645581
66025.35908800038
66036.0592515346
66036.0592515346
66036.0592515346
66056.69528120778
66048.28800985945
66050.58090204536
66049.05230725475
66049.05230725475
66054.40238902187
66063.5739577655
66057.45957860308
66055.16668641717
66055.16668641717
66059.752470789
66062.8096603702
66061.28106557959
66068.92403953262
66068.92403953262
66077.33131088095
66072.74552650914
66069.68833692792
66082.68139264807
66082.68139264807
66075.80271609034
66091.85296139169
66084.97428483398
66088.79577181049
66088.79577181049
66103.31742232124
66099.49593534472
66094.91015097291
66098.73163794942
66098.73163794942
66116.31047804139
66115.54618064608
66111.72469366956
66116.31047804139
66116.31047804139
66116.31047804139
66122.4248572038
66124.7177493897
66128.53923636622
66128.53923636622
66122.4248572038
66108.66750408836
66134.65361552864
66134.65361552864
66120.8962624132
66147.64667124879
66138.47510250515
66146.88237385348
66146.88237385348
66157.58253738772
66155.2896452018
66155.2896452018
66146.88237385348
66146.88237385348
66161.40402436422
66167.51840352664
66171.33989050316
66170.57559310786
66170.57559310786
66166.75410613135
66170.57559310786
66178.9828644562
66167.51840352664
66167.51840352664
66176.68997227028
66177.45426966558
66183.568648828
66189.68302799042
66189.68302799042
66195.79740715284
66208.79046287299
66204.96897589647
66193.50451496693
66193.50451496693
66202.67608371057
66209.5547602683
66208.79046287299
66219.49062640722
66219.49062640722
66216.43343682602
66213.3762472448
66202.67608371057
66195.79740715284
66195.79740715284
66198.85459673405
66201.91178631526
66171.33989050316
66171.33989050316
66173.63278268906
66160.63972696893
66149.93956343469
66138.47510250515
66138.47510250515
66128.53923636622
66098.73163794942
66083.44569004337
66071.98122911384
66071.98122911384
66081.91709525276
66031.4734671628
66013.13032967554
65986.37992083994
65986.37992083994
65970.3296755386
65950.45794326073
65921.41464223924
65885.49266466
65885.49266466
65871.73531154457
65846.51349749959
65818.23449387339
65787.66259806129
65787.66259806129
65776.19813713175
65743.33334913374
65726.51880643709
65694.41831583438
65694.41831583438
65682.18955750954
65657.73204085986
65643.21039034911
65609.58130495579
65609.58130495579
65585.12378830611
65578.24511174839
65570.60213779537
65550.7304055175
65550.7304055175
65531.62297063494
65529.33007844903
65507.16545398525
65486.52942431209
65486.52942431209
65471.24347640604
65462.07190766241
65448.31455454696
65448.31455454696
65452.136041523474
65442.20017538454
65408.57108999123
65417.74265873486
65417.74265873486
65421.564145711374
65412.392576967744
65406.278197805324
65383.349275946246
65383.349275946246
65392.520844689876
65385.64216813215
65390.22795250397
65381.05638376034
65381.05638376034
65382.58497855094
65382.58497855094
65377.234896783826
65380.292086365036
65380.292086365036
65373.41340980731
65378.76349157443
65389.463655108666
65360.42035408717
65360.42035408717
65378.76349157443
65375.70630199322
65379.52778896973
65371.120517621406
65371.120517621406
65385.64216813215
65383.349275946246
65399.3995212476
65393.28514208518
65393.28514208518
65396.34233166639
65388.69935771336
65397.10662906169
65414.68546915365
65414.68546915365
65420.035550920766
65410.09968478183
65426.149930083186
65417.74265873486
65417.74265873486
65427.678524873794
65429.207119664396
65439.14298580333
65439.14298580333
65448.31455454696
65432.264309245606
65447.550257151655
65450.607446732865
65450.607446732865
65444.493067570445
65457.48612329059
65458.250420685894
65457.48612329059
65457.48612329059
65467.421989429524
65471.24347640604
65482.707937335574
65478.12215296376
65478.12215296376
65489.5866138933
65480.41504514967
65499.52248003223
65502.57966961344
65502.57966961344
65506.40115658996
65513.27983314767
65535.44445761145
65513.27983314767
65513.27983314767
65527.03718626312
65526.27288886782
65530.09437584433
65531.62297063494
65531.62297063494
65534.68016021615
65540.03024198326
65543.08743156448
65548.43751333159
65548.43751333159
65558.37337947053
65563.72346123765
65565.25205602824
65570.60213779537
65570.60213779537
65563.72346123765
65564.48775863295
65574.42362477188
65574.42362477188
65570.60213779537
65558.37337947053
65584.3594909108
65569.07354300476
65569.07354300476
65580.5380039343
65568.30924560946
65579.00940914369
65569.07354300476
65569.07354300476
65587.41668049202
65587.41668049202
65587.41668049202
65576.7165169578
65576.7165169578
65584.3594909108
65587.41668049202
65582.06659872491
65584.3594909108
65584.3594909108
65578.24511174839
65572.13073258597
65572.13073258597
65573.65932737658
65573.65932737658
65575.18792216718
65600.40973621217
65586.65238309672
65579.00940914369
65579.00940914369
65581.3023013296
65587.41668049202
65589.70957267794
65577.48081435308
65577.48081435308
65587.41668049202
65580.5380039343
65583.5951935155
65579.00940914369
65579.00940914369
65576.7165169578
65583.5951935155
65582.06659872491
65591.23816746853
65591.23816746853
65588.18097788733
65610.3456023511
65584.3594909108
65584.3594909108
65612.63849453701
65593.53105965444
65594.29535704975
65597.35254663095
65597.35254663095
65616.45998151352
65615.69568411821
65603.46692579337
65604.23122318868
65604.23122318868
65617.22427890882
65616.45998151352
65611.1098997464
65621.04576588534
65621.04576588534
65628.68873983836
65635.56741639608
65630.21733462896
65630.21733462896
65630.21733462896
65634.03882160547
65648.56047211622
65636.33171379138
65644.73898513972
65644.73898513972
65653.14625648803
65669.1965017894
65678.36807053302
65662.31782523167
65662.31782523167
65677.60377313773
65685.24674709074
65693.65401843908
65662.31782523167
65662.31782523167
65691.36112625316
65684.48244969544
65700.5326949968
65707.41137155452
65707.41137155452
65710.46856113573
65723.46161685587
65717.34723769345
65740.27615955254
65740.27615955254
65725.75450904178
65724.22591425118
65734.1617803901
65734.1617803901
65745.62624131965
65742.56905173844
65760.14789183039
65751.74062048207
65751.74062048207
65750.21202569146
65772.37665015523
65776.19813713175
65768.55516317872
65768.55516317872
65773.14094755054
65776.19813713175
65785.36970587538
65785.36970587538
65785.36970587538
65796.06986940962
65787.66259806129
65797.59846420021
65796.06986940962
65796.06986940962
65822.0559808499
65820.5273860593
65817.47019647808
65816.70589908278
65816.70589908278
65830.46325219823
65827.40606261702
65835.04903657004
65831.22754959353
65831.22754959353
65836.57763136065
65847.27779489488
65829.69895480292
65833.52044177944
65833.52044177944
65869.44241935866
65866.38522977744
65869.44241935866
65874.02820373047
65874.02820373047
65873.26390633517
65867.14952717275
65880.14258289289
65900.01431517076
65900.01431517076
65899.25001777546
65894.66423340364
65907.65728912379
65907.65728912379
65903.07150475198
65898.48572038015
65899.25001777546
65915.30026307682
65915.30026307682
65926.00042661105
65923.70753442514
65923.70753442514
65922.17893963454
65922.17893963454
65927.52902140166
65930.58621098286
65947.40075367953
65941.28637451709
65941.28637451709
65937.46488754058
65944.34356409831
65948.16505107481
65939.7577797265
65939.7577797265
65958.10091721376
65969.56537814329
65952.75083544664
65961.15810679496
65961.15810679496
65969.56537814329
65967.27248595738
65971.0939729339
65963.45099898087
65963.45099898087
65974.1511625151
65982.55843386344
65982.55843386344
65979.50124428222
65979.50124428222
65980.26554167752
65980.26554167752
66005.48735572251
65998.60867916478
65998.60867916478
65992.49430000236
65995.55148958358
65991.73000260706
66008.54454530372
66008.54454530372
66009.30884269903
66008.54454530372
66020.00900623326
66020.00900623326
66019.24470883796
66020.00900623326
66029.18057497688
66030.70916976749
66030.70916976749
66034.53065674401
66033.0020619534
66036.0592515346
66040.64503590643
66040.64503590643
66044.46652288294
66041.40933330174
66047.52371246416
66029.18057497688
66029.18057497688
66041.40933330174
66045.23082027824
66054.40238902187
66048.28800985945
66048.28800985945
66052.10949683597
66063.5739577655
66062.8096603702
66062.8096603702
66062.8096603702
66069.68833692792
66077.33131088095
66068.92403953262
66068.92403953262
66068.92403953262
66087.26717701988
66090.3243666011
66094.91015097291
66086.50287962458
66086.50287962458
66098.73163794942
66095.67444836821
66090.3243666011
66102.55312492594
66102.55312492594
66108.66750408836
66100.26023274002
66112.48899106486
66128.53923636622
66128.53923636622
66117.83907283198
66115.54618064608
66126.24634418031
66126.24634418031
66131.59642594743
66121.6605598085
66131.59642594743
66143.82518427227
66143.82518427227
66154.5253478065
66147.64667124879
66144.58948166757
66156.81823999241
66156.81823999241
66150.70386082999
66169.81129571256
66158.34683478302
66164.46121394544
66164.46121394544
66164.46121394544
66162.93261915483
66155.2896452018
66156.81823999241
66156.81823999241
66136.94650771454
66123.9534519944
66121.6605598085
66110.96039627425
66110.96039627425
66109.43180148366
66085.73858222927
66080.38850046216
66058.22387599839
66058.22387599839
66048.28800985945
66030.70916976749
66002.4301661413
65982.55843386344
65982.55843386344
65962.68670158557
65950.45794326073
65919.12175005332
65911.4787761003
65911.4787761003
65877.08539331169
65847.27779489488
65821.2916834546
65792.2483824331
65792.2483824331
65763.20508141161
65744.09764652904
65715.05434550755
65715.05434550755
65705.11847936861
65675.31088095182
65657.73204085986
65620.28146849004
65620.28146849004
65613.40279193231
65580.5380039343
65566.01635342355
65544.61602635508
65544.61602635508
65519.39421231009
65497.22958784633
65485.00082952148
65463.60050245301
65463.60050245301
65454.42893370938
65437.61439101273
65438.378688408025
65411.62827957244
65411.62827957244
65417.74265873486
65392.520844689876
65387.17076292276
65369.5919228308
65369.5919228308
65368.063328040196
65368.063328040196
65355.07027232005
65342.07721659991
65342.07721659991
65337.49143222809
65338.25572962339
65338.25572962339
65327.55556608916
65327.55556608916
65325.26267390325
65321.44118692674
65329.084160879764
65316.09110515962
65316.09110515962
65318.38399734553
65306.155239020685
65307.683833811294
65307.683833811294
65316.09110515962
65304.626644230084
65307.683833811294
65302.33375204418
65302.33375204418
65321.44118692674
65319.14829474083
65315.326807764315
65326.026971298554
65326.026971298554
65331.37705306567
65331.37705306567
65336.72713483279
65345.13440618112
65345.13440618112
65342.07721659991
65336.72713483279
65347.42729836702
65352.01308273884
65352.01308273884
65338.25572962339
65349.72019055294
65359.65605669186
65355.07027232005
65355.07027232005
65369.5919228308
65362.71324627307
65370.3562202261
65364.24184106368
65364.24184106368
65370.3562202261
65377.234896783826
65384.11357334155
65381.05638376034
65381.05638376034
65395.578034271086
65400.1638186429
65398.635223852296
65403.22100822411
65403.22100822411
65414.68546915365
65414.68546915365
65407.04249520062
65423.092740501976
65423.092740501976
65424.621335292584
65425.38563268788
65424.621335292584
65424.621335292584
65442.20017538454
65460.5433128718
65445.25736496575
65458.250420685894
65458.250420685894
65454.42893370938
65470.479179010734
65476.593558173154
65465.12909724362
65465.12909724362
65486.52942431209
65498.75818263693
65486.52942431209
65477.35785556846
65477.35785556846
65490.3509112886
65496.46529045102
65485.00082952148
65504.10826440404
65504.10826440404
65507.16545398525
65506.40115658996
65510.22264356646
65506.40115658996
65506.40115658996
65521.687104496006
65516.33702272888
65521.687104496006
65525.50859147251
65525.50859147251
65509.458346171166
65520.1585097054
65522.4514018913
65514.04413054298
65514.04413054298
65541.55883677387
65520.1585097054
65534.68016021615
65525.50859147251
65525.50859147251
65533.15156542554
65531.62297063494
65532.38726803024
65531.62297063494
65531.62297063494
65537.73734979736
65534.68016021615
65554.55189249401
65554.55189249401
65548.43751333159
65531.62297063494
65527.03718626312
65532.38726803024
65532.38726803024
65538.50164719266
65538.50164719266
65530.09437584433
65524.744294077216
65524.744294077216
65533.15156542554
65536.20875500675
65530.09437584433
65533.15156542554
65533.15156542554
65545.38032375039
65549.2018107269
65542.32313416917
65536.20875500675
65536.20875500675
65547.67321593629
65561.43056905174
65551.49470291281
65550.7304055175
65550.7304055175
65561.43056905174
65565.25205602824
65569.07354300476
65554.55189249401
65554.55189249401
65561.43056905174
65577.48081435308
65572.13073258597
65579.00940914369
65579.00940914369
65584.3594909108
65592.00246486384
65582.06659872491
65586.65238309672
65586.65238309672
65592.00246486384
65596.58824923565
65609.58130495579
65608.0527101652
65608.0527101652
65613.40279193231
65616.45998151352
65616.45998151352
65616.45998151352
65615.69568411821
65626.39584765246
65633.27452421018
65633.27452421018
65633.27452421018
65637.09601118669
65648.56047211622
65656.20344606925
65652.38195909275
65652.38195909275
65650.08906690683
65652.38195909275
65659.26063565045
65683.71815230015
65683.71815230015
65677.60377313773
65680.66096271893
65689.06823406726
65681.42526011424
65681.42526011424
65696.71120802028
65698.23980281089
65701.2969923921
65702.06128978741
65702.06128978741
65713.52575071694
65735.69037518071
65720.40442727467
65730.3402934136
65730.3402934136
65743.33334913374
65732.63318559951
65743.33334913374
65761.676486621
65761.676486621
65743.33334913374
65753.26921527267
65765.4979735975
65765.4979735975
65765.4979735975
65781.54821889887
65754.03351266797
65782.31251629417
65784.60540848007
65784.60540848007
65795.30557201432
65803.71284336263
65798.36276159552
65798.36276159552
65813.64870950158
65810.59151992036
65811.35581731566
65814.41300689688
65814.41300689688
65833.52044177944
65828.17036001233
65837.34192875595
65836.57763136065
65836.57763136065
65840.39911833717
65842.69201052307
65851.0992818714
65848.04209229018
65848.04209229018
65844.22060531368
65857.21366103382
65873.26390633517
65876.32109591638
65876.32109591638
65883.19977247411
65869.44241935866
65874.02820373047
65878.61398810228
65878.61398810228
65886.25696205531
65898.48572038015
65898.48572038015
65900.01431517076
65900.01431517076
65911.4787761003
65914.53596568151
65921.41464223924
65922.17893963454
65922.17893963454
65928.29331879696
65930.58621098286
65939.7577797265
65941.28637451709
65941.28637451709
65945.10786149361
65947.40075367953
65926.00042661105
65958.10091721376
65958.10091721376
65959.62951200437
65978.73694688693
65964.21529637618
65964.21529637618
65972.6225677245
65973.3868651198
65984.08702865404
65977.20835209632
65977.20835209632
65973.3868651198
65984.08702865404
65984.08702865404
65989.43711042116
65989.43711042116
65989.43711042116
65991.73000260706
65998.60867916478
65999.37297656009
65999.37297656009
66010.07314009433
66010.07314009433
65999.37297656009
66009.30884269903
66009.30884269903
66029.18057497688
66025.35908800038
66024.59479060507
66025.35908800038
66025.35908800038
66037.58784632522
66030.70916976749
66037.58784632522
66038.35214372052
66038.35214372052
66046.75941506885
66040.64503590643
66049.05230725475
66055.16668641717
66055.16668641717
66045.23082027824
66059.752470789
66066.6311473467
66079.62420306685
66079.62420306685
66074.27412129974
66079.62420306685
66089.56006920579
66087.26717701988
66087.26717701988
66084.97428483398
66095.67444836821
66101.78882753063
66101.78882753063
66093.3815561823
66099.49593534472
66098.73163794942
66106.37461190244
66106.37461190244
66111.72469366956
66115.54618064608
66119.36766762259
66121.6605598085
66121.6605598085
66119.36766762259
66128.53923636622
66135.41791292395
66133.88931813334
66133.88931813334
66137.71080510985
66144.58948166757
66138.47510250515
66143.82518427227
66143.82518427227
66152.9967530159
66163.69691655014
66149.93956343469
66159.87542957363
66159.87542957363
66164.46121394544
66171.33989050316
66178.9828644562
66175.92567487498
66175.92567487498
66184.33294622331
66199.61889412935
66198.85459673405
66188.91873059512
66188.91873059512
66207.26186808238
66215.66913943071
66215.66913943071
66221.78351859313
66221.78351859313
66226.36930296494
66218.72632901192
66214.90484203541
66232.48368212736
66232.48368212736
66229.42649254616
66249.29822482402
66235.54087170858
66235.54087170858
66232.48368212736
66230.95508733676
66223.31211338374
66217.96203161661
66217.96203161661
66206.49757068708
66187.39013580451
66191.97592017634
66178.9828644562
66178.9828644562
66160.63972696893
66157.58253738772
66132.36072334273
66105.61031450714
66105.61031450714
66087.26717701988
66060.51676818429
66068.92403953262
66038.35214372052
66038.35214372052
66027.65198018629
66012.36603228023
65978.73694688693
65945.10786149361
65945.10786149361
65932.11480577347
65902.30720735667
65879.37828549759
65846.51349749959
65846.51349749959
65831.22754959353
65799.12705899082
65792.2483824331
65759.38359443509
65759.38359443509
65736.45467257602
65720.40442727467
65707.41137155452
65689.06823406726
65689.06823406726
65669.1965017894
65638.6246059773
65620.28146849004
65603.46692579337
65603.46692579337
65570.60213779537
65572.13073258597
65544.61602635508
65544.61602635508
65544.61602635508
65522.4514018913
65499.52248003223
65473.536368591944
65473.536368591944
65477.35785556846
65466.65769203422
65470.479179010734
65437.61439101273
65437.61439101273
65437.61439101273
65431.5000118503
65433.02860664091
65432.264309245606
65432.264309245606
65417.74265873486
65411.62827957244
65401.692413433506
65399.3995212476
65399.3995212476
65396.34233166639
65412.392576967744
65392.520844689876
65373.41340980731
65373.41340980731
65394.04943948048
65391.75654729457
65393.28514208518
65399.3995212476
65399.3995212476
65391.75654729457
65390.22795250397
65393.28514208518
65403.22100822411
65403.22100822411
65391.75654729457
65401.692413433506
65400.1638186429
65418.506956130164
65418.506956130164
65409.335387386534
65403.22100822411
65415.449766548954
65434.55720143151
65434.55720143151
65422.32844310667
65425.38563268788
65424.621335292584
65424.621335292584
65447.550257151655
65433.02860664091
65439.14298580333
65443.72877017515
65443.72877017515
65456.721825895285
65450.607446732865
65444.493067570445
65459.0147180812
65459.0147180812
65465.12909724362
65473.536368591944
65481.17934254497
65469.71488161543
65469.71488161543
65485.00082952148
65491.1152086839
65493.40810086981
65499.52248003223
65499.52248003223
65511.75123835707
65511.75123835707
65513.27983314767
65516.33702272888
65516.33702272888
65525.50859147251
65521.687104496006
65538.50164719266
65533.15156542554
65533.15156542554
65544.61602635508
65554.55189249401
65555.31618988932
65552.2590003081
65552.2590003081
65561.43056905174
65563.72346123765
65568.30924560946
65578.24511174839
65578.24511174839
65568.30924560946
65576.7165169578
65584.3594909108
65594.29535704975
65594.29535704975
65598.11684402626
65591.23816746853
65599.64543881686
65599.64543881686
65598.11684402626
65595.05965444505
65616.45998151352
65606.52411537459
65606.52411537459
65608.0527101652
65598.11684402626
65621.04576588534
65598.11684402626
65598.11684402626
65608.0527101652
65591.23816746853
65609.58130495579
65615.69568411821
65615.69568411821
65615.69568411821
65617.22427890882
65603.46692579337
65603.46692579337
65603.46692579337
65597.35254663095
65601.17403360747
65615.69568411821
65600.40973621217
65600.40973621217
65607.28841276989
65613.40279193231
65597.35254663095
65608.0527101652
65608.0527101652
65619.51717109473
65609.58130495579
65614.16708932762
65610.3456023511
65610.3456023511
65613.40279193231
65610.3456023511
65616.45998151352
65618.75287369943
65618.75287369943
65610.3456023511
65620.28146849004
65618.75287369943
65629.45303723366
65629.45303723366
65618.75287369943
65625.63155025715
65629.45303723366
65629.45303723366
65645.50328253502
65635.56741639608
65632.51022681488
65643.21039034911
65643.21039034911
65642.4460929538
65628.68873983836
65640.15320076789
65639.3889033726
65639.3889033726
65637.09601118669
65648.56047211622
65655.43914867395
65649.32476951153
65649.32476951153
65649.32476951153
65647.03187732561
65658.49633825517
65651.61766169744
65651.61766169744
65668.43220439409
65676.07517834712
65674.54658355651
65675.31088095182
65675.31088095182
65683.71815230015
65691.36112625316
65689.06823406726
65686.01104448605
65686.01104448605
65712.76145332164
65716.58294029815
65710.46856113573
65706.64707415922
65706.64707415922
65716.58294029815
65724.22591425118
65734.1617803901
65743.33334913374
65743.33334913374
65738.74756476193
65739.51186215723
65743.33334913374
65745.62624131965
65745.62624131965
65769.31946057403
65756.32640485388
65758.6192970398
65758.6192970398
65771.61235275994
65783.07681368948
65788.42689545659
65788.42689545659
65788.42689545659
65796.06986940962
65788.42689545659
65794.54127461901
65797.59846420021
65797.59846420021
65801.41995117674
65814.41300689688
65814.41300689688
65816.70589908278
65816.70589908278
65821.2916834546
65829.69895480292
65833.52044177944
65826.64176522172
65826.64176522172
65837.34192875595
65832.75614438414
65854.1564714526
65847.27779489488
65847.27779489488
65862.56374280094
65869.44241935866
65880.14258289289
65870.20671675396
65870.20671675396
65882.4354750788
65894.66423340364
65891.60704382243
65899.25001777546
65899.25001777546
65902.30720735667
65912.2430734956
65927.52902140166
65914.53596568151
65914.53596568151
65912.2430734956
65915.30026307682
65926.00042661105
65926.00042661105
65931.35050837816
65940.5220771218
65941.28637451709
65948.16505107481
65948.16505107481
65951.22224065603
65955.04372763254
65955.04372763254
65955.04372763254
65955.04372763254
65973.3868651198
65974.1511625151
65974.1511625151
65973.3868651198
65973.3868651198
65972.6225677245
65982.55843386344
65994.02289479297
65985.61562344464
65985.61562344464
65990.20140781646
65975.67975730571
65993.25859739767
65984.08702865404
65984.08702865404
66004.7230583272
66002.4301661413
65998.60867916478
66002.4301661413
66002.4301661413
66024.59479060507
66049.05230725475
66021.53760102387
66016.18751925675
66016.18751925675
66025.35908800038
66032.2377645581
66028.4162775816
66044.46652288294
66044.46652288294
66050.58090204536
66039.11644111582
66060.51676818429
66038.35214372052
66038.35214372052
66053.63809162658
66062.8096603702
66058.22387599839
66058.22387599839
66069.68833692792
66072.74552650914
66078.85990567156
66074.27412129974
66074.27412129974
66074.27412129974
66077.33131088095
66081.91709525276
66083.44569004337
66083.44569004337
66096.43874576352
66103.31742232124
66099.49593534472
66095.67444836821
66095.67444836821
66107.90320669305
66098.73163794942
66112.48899106486
66106.37461190244
66106.37461190244
66122.4248572038
66124.7177493897
66124.7177493897
66118.60337022728
66118.60337022728
66119.36766762259
66127.77493897092
66131.59642594743
66138.47510250515
66138.47510250515
66139.23939990046
66138.47510250515
66152.9967530159
66146.88237385348
66146.88237385348
66143.82518427227
66163.69691655014
66159.87542957363
66165.98980873605
66165.98980873605
66164.46121394544
66170.57559310786
66168.28270092195
66167.51840352664
66167.51840352664
66172.86848529377
66186.6258384092
66181.27575664209
66181.27575664209
66202.67608371057
66196.56170454815
66202.67608371057
66201.91178631526
66201.91178631526
66213.3762472448
66210.3190576636
66218.72632901192
66215.66913943071
66215.66913943071
66234.77657431328
66231.71938473206
66244.7124404522
66227.89789775555
66227.89789775555
66238.59806128978
66247.76963003342
66236.30516910387
66236.30516910387
66236.30516910387
66245.47673784751
66257.70549617235
66249.29822482402
66235.54087170858
66235.54087170858
66255.41260398643
66257.70549617235
66253.88400919584
66236.30516910387
66236.30516910387
66251.59111700993
66244.7124404522
66253.88400919584
66243.9481430569
66243.9481430569
66229.42649254616
66219.49062640722
66195.79740715284
66188.91873059512
66188.91873059512
66174.39708008437
66162.93261915483
66146.88237385348
66138.47510250515
66138.47510250515
66113.25328846017
66097.96734055413
66077.33131088095
66077.33131088095
66070.45263432323
66049.05230725475
66004.7230583272
65989.43711042116
65989.43711042116
65978.73694688693
65964.21529637618
65932.11480577347
65905.36439693788
65905.36439693788
65887.02125945062
65880.14258289289
65846.51349749959
65820.5273860593
65820.5273860593
65816.70589908278
65792.2483824331
65779.25532671296
65749.44772829616
65749.44772829616
65734.1617803901
65714.29004811225
65717.34723769345
65680.66096271893
65680.66096271893
65671.4893939753
65663.08212262698
65649.32476951153
65634.03882160547
65634.03882160547
65623.33865807124
65610.3456023511
65602.70262839807
65585.12378830611
65585.12378830611
65583.5951935155
65570.60213779537
65574.42362477188
65568.30924560946
65568.30924560946
65562.19486644704
65557.60908207523
65560.66627165643
65552.2590003081
65552.2590003081
65541.55883677387
65542.32313416917
65544.61602635508
65544.61602635508
65541.55883677387
65524.744294077216
65540.03024198326
65526.27288886782
65526.27288886782
65532.38726803024
65529.33007844903
65528.56578105373
65540.03024198326
65540.03024198326
65530.09437584433
65531.62297063494
65532.38726803024
65527.03718626312
65527.03718626312
65543.08743156448
65540.03024198326
65536.20875500675
65523.21569928661
65523.21569928661
65560.66627165643
65564.48775863295
65558.37337947053
65564.48775863295
65564.48775863295
65583.5951935155
65583.5951935155
65584.3594909108
65581.3023013296
65581.3023013296
65595.05965444505
65611.1098997464
65602.70262839807
65615.69568411821
65615.69568411821
65629.45303723366
65633.27452421018
65644.73898513972
65656.20344606925
65656.20344606925
65665.37501481287
65655.43914867395
65670.72509658
65683.71815230015
65683.71815230015
65682.18955750954
65688.30393667196
65693.65401843908
65693.65401843908
65705.11847936861
65703.589884578
65716.58294029815
65715.05434550755
65715.05434550755
65718.11153508876
65726.51880643709
65726.51880643709
65735.69037518071
65735.69037518071
65748.68343090086
65749.44772829616
65750.21202569146
65738.74756476193
65738.74756476193
65755.56210745858
65770.08375796933
65767.02656838812
65773.14094755054
65773.14094755054
65775.43383973645
65781.54821889887
65773.14094755054
65774.66954234114
65774.66954234114
65778.49102931765
65773.14094755054
65774.66954234114
65758.6192970398
65758.6192970398
65783.07681368948
65780.01962410826
65774.66954234114
65760.14789183039
65760.14789183039
65778.49102931765
65793.0126798284
65773.14094755054
65774.66954234114
65774.66954234114
65768.55516317872
65775.43383973645
65770.08375796933
65770.08375796933
65773.14094755054
65776.19813713175
65769.31946057403
65770.08375796933
65770.08375796933
65757.09070224919
65762.4407840163
65751.74062048207
65750.21202569146
65750.21202569146
65762.4407840163
65748.68343090086
65742.56905173844
65756.32640485388
65756.32640485388
65762.4407840163
65755.56210745858
65755.56210745858
65753.26921527267
65753.26921527267
65758.6192970398
65757.09070224919
65765.4979735975
65752.50491787738
65752.50491787738
65758.6192970398
65760.14789183039
65764.73367620222
65760.14789183039
65760.14789183039
65760.14789183039
65765.4979735975
65781.54821889887
65761.676486621
65761.676486621
65770.08375796933
65776.19813713175
65784.60540848007
65779.25532671296
65779.25532671296
65789.1911928519
65778.49102931765
65785.36970587538
65798.36276159552
65798.36276159552
65793.0126798284
65803.71284336263
65802.18424857204
65802.18424857204
65818.23449387339
65817.47019647808
65817.47019647808
65819.763088664
65819.763088664
65824.34887303581
65831.22754959353
65834.28473917475
65832.75614438414
65832.75614438414
65859.50655321973
65841.16341573246
65852.62787666201
65842.69201052307
65842.69201052307
65860.27085061502
65859.50655321973
65863.32804019624
65865.62093238215
65865.62093238215
65865.62093238215
65876.32109591638
65882.4354750788
65884.7283672647
65884.7283672647
65884.7283672647
65904.60009954257
65894.66423340364
65905.36439693788
65905.36439693788
65906.12869433318
65909.1858839144
65902.30720735667
65918.35745265802
65918.35745265802
65926.00042661105
65931.35050837816
65928.29331879696
65947.40075367953
65947.40075367953
65931.35050837816
65947.40075367953
65955.04372763254
65955.04372763254
65967.27248595738
65960.39380939965
65970.3296755386
65974.1511625151
65974.1511625151
65985.61562344464
65989.43711042116
65999.37297656009
65984.08702865404
65984.08702865404
65997.08008437419
66000.13727395539
66000.13727395539
66004.7230583272
66004.7230583272
66023.06619581446
66035.2949541393
66028.4162775816
66021.53760102387
66021.53760102387
66026.12338539568
66040.64503590643
66040.64503590643
66030.70916976749
66030.70916976749
66039.11644111582
66051.34519944066
66057.45957860308
66041.40933330174
66041.40933330174
66058.22387599839
66069.68833692792
66062.8096603702
66065.86684995142
66065.86684995142
66080.38850046216
66076.56701348565
66080.38850046216
66088.79577181049
66088.79577181049
66077.33131088095
66083.44569004337
66103.31742232124
66098.73163794942
66098.73163794942
66114.78188325078
66097.96734055413
66107.90320669305
66107.90320669305
66122.4248572038
66137.71080510985
66112.48899106486
66121.6605598085
66121.6605598085
66133.88931813334
66119.36766762259
66132.36072334273
66133.88931813334
66133.88931813334
66142.29658948166
66142.29658948166
66141.53229208637
66141.53229208637
66141.53229208637
66146.88237385348
66151.4681582253
66155.2896452018
66135.41791292395
66135.41791292395
66175.92567487498
66149.93956343469
66171.33989050316
66162.93261915483
66162.93261915483
66162.93261915483
66175.92567487498
66174.39708008437
66168.28270092195
66168.28270092195
66182.8043514327
66186.6258384092
66195.79740715284
66184.33294622331
66184.33294622331
66188.91873059512
66202.67608371057
66203.44038110587
66202.67608371057
66202.67608371057
66206.49757068708
66206.49757068708
66222.54781598844
66222.54781598844
66204.96897589647
66214.90484203541
66226.36930296494
66218.72632901192
66218.72632901192
66230.95508733676
66218.72632901192
66217.96203161661
66224.84070817434
66224.84070817434
66230.95508733676
66228.66219515086
66243.9481430569
66241.655250871
66241.655250871
66249.29822482402
66250.82681961462
66248.53392742873
66250.82681961462
66250.82681961462
66260.76268575357
66262.29128054416
66272.9914440784
66264.58417273007
66264.58417273007
66270.69855189249
66271.4628492878
66277.57722845022
66263.81987533477
66263.81987533477
66279.87012063613
66298.97755551868
66290.57028417036
66285.98449979855
66285.98449979855
66288.27739198445
66292.86317635626
66294.39177114687
66287.51309458914
66287.51309458914
66268.40565970658
66272.9914440784
66267.64136231127
66262.29128054416
66262.29128054416
66244.7124404522
66236.30516910387
66227.89789775555
66227.89789775555
66216.43343682602
66195.79740715284
66184.33294622331
66170.57559310786
66170.57559310786
66150.70386082999
66136.94650771454
66108.66750408836
66103.31742232124
66103.31742232124
66093.3815561823
66059.752470789
66057.45957860308
66024.59479060507
66024.59479060507
65996.31578697888
65980.26554167752
65960.39380939965
65931.35050837816
65931.35050837816
65917.59315526272
65887.02125945062
65867.14952717275
65844.22060531368
65844.22060531368
65826.64176522172
65798.36276159552
65801.41995117674
65760.14789183039
65760.14789183039
65736.45467257602
65726.51880643709
65708.17566894983
65698.23980281089
65698.23980281089
65677.60377313773
65669.1965017894
65646.26757993031
65638.6246059773
65638.6246059773
65619.51717109473
65603.46692579337
65603.46692579337
65603.46692579337
65598.11684402626
65574.42362477188
65561.43056905174
65548.43751333159
65548.43751333159
65557.60908207523
65537.73734979736
65528.56578105373
65517.10132012419
65517.10132012419
65521.687104496006
65518.629914914796
65510.22264356646
65505.63685919465
65505.63685919465
65488.05801910269
65501.05107482283
65505.63685919465
65483.47223473088
65483.47223473088
65488.05801910269
65500.28677742754
65489.5866138933
65481.17934254497
65481.17934254497
65480.41504514967
65486.52942431209
65489.5866138933
65476.593558173154
65476.593558173154
65471.24347640604
65487.29372170739
65475.06496338255
65482.707937335574
65482.707937335574
65495.70099305572
65490.3509112886
65498.75818263693
65506.40115658996
65506.40115658996
65497.22958784633
65505.63685919465
65504.10826440404
65510.22264356646
65510.22264356646
65514.04413054298
65505.63685919465
65521.687104496006
65521.687104496006
65520.1585097054
65524.744294077216
65522.4514018913
65529.33007844903
65529.33007844903
65534.68016021615
65536.20875500675
65543.08743156448
65545.38032375039
65545.38032375039
65550.7304055175
65557.60908207523
65558.37337947053
65560.66627165643
65560.66627165643
65561.43056905174
65572.13073258597
65585.12378830611
65574.42362477188
65574.42362477188
65593.53105965444
65598.11684402626
65593.53105965444
65599.64543881686
65599.64543881686
65606.52411537459
65622.57436067594
65622.57436067594
65615.69568411821
65615.69568411821
65631.74592941957
65632.51022681488
65629.45303723366
65633.27452421018
65633.27452421018
65646.26757993031
65652.38195909275
65640.15320076789
65649.32476951153
65649.32476951153
65652.38195909275
65653.14625648803
65641.6817955585
65641.6817955585
65662.31782523167
65655.43914867395
65650.08906690683
65673.0179887659
65673.0179887659
65660.02493304576
65654.67485127864
65653.14625648803
65661.55352783637
65661.55352783637
65652.38195909275
65644.73898513972
65648.56047211622
65645.50328253502
65645.50328253502
65655.43914867395
65647.03187732561
65649.32476951153
65655.43914867395
65655.43914867395
65660.02493304576
65661.55352783637
65660.02493304576
65649.32476951153
65649.32476951153
65645.50328253502
65657.73204085986
65668.43220439409
65657.73204085986
65657.73204085986
65667.66790699879
65657.73204085986
65657.73204085986
65648.56047211622
65648.56047211622
65656.20344606925
65662.31782523167
65649.32476951153
65659.26063565045
65659.26063565045
65654.67485127864
65657.73204085986
65651.61766169744
65656.20344606925
65656.20344606925
65667.66790699879
65661.55352783637
65658.49633825517
65658.49633825517
65676.07517834712
65668.43220439409
65665.37501481287
65673.0179887659
65673.0179887659
65678.36807053302
65681.42526011424
65688.30393667196
65673.0179887659
65673.0179887659
65675.31088095182
65677.60377313773
65680.66096271893
65684.48244969544
65684.48244969544
65683.71815230015
65689.06823406726
65693.65401843908
65687.53963927666
65687.53963927666
65704.35418197331
65708.17566894983
65701.2969923921
65704.35418197331
65704.35418197331
65710.46856113573
65719.64012987936
65720.40442727467
65707.41137155452
65707.41137155452
65737.21896997132
65741.04045694783
65729.57599601829
65752.50491787738
65752.50491787738
65746.39053871496
65743.33334913374
65771.61235275994
65778.49102931765
65778.49102931765
65764.73367620222
65772.37665015523
65778.49102931765
65786.13400327068
65786.13400327068
65789.1911928519
65787.66259806129
65797.59846420021
65797.59846420021
65815.17730429218
65810.59151992036
65826.64176522172
65799.12705899082
65799.12705899082
65820.5273860593
65818.23449387339
65829.69895480292
65830.46325219823
65830.46325219823
65834.28473917475
65841.16341573246
65840.39911833717
65842.69201052307
65842.69201052307
65853.3921740573
65856.44936363852
65852.62787666201
65863.32804019624
65863.32804019624
65865.62093238215
65864.09233759154
65882.4354750788
65876.32109591638
65876.32109591638
65893.13563861304
65887.02125945062
65902.30720735667
65892.37134121773
65892.37134121773
65906.12869433318
65909.1858839144
65922.17893963454
65920.65034484393
65920.65034484393
65928.29331879696
65935.17199535467
65935.17199535467
65947.40075367953
65947.40075367953
65946.63645628422
65947.40075367953
65944.34356409831
65955.04372763254
65955.04372763254
65968.03678335268
65949.69364586542
65950.45794326073
65950.45794326073
65968.03678335268
65978.73694688693
65988.67281302586
65978.73694688693
65978.73694688693
65990.20140781646
65990.20140781646
65983.32273125874
65990.20140781646
65990.20140781646
65998.60867916478
65997.08008437419
65997.08008437419
65994.02289479297
65994.02289479297
66009.30884269903
66005.48735572251
66007.01595051312
66008.54454530372
66008.54454530372
66019.24470883796
66014.65892446614
66029.18057497688
66020.00900623326
66020.00900623326
66016.18751925675
66032.2377645581
66029.18057497688
66030.70916976749
66030.70916976749
66039.11644111582
66053.63809162658
66056.69528120778
66050.58090204536
66050.58090204536
66059.752470789
66056.69528120778
66074.27412129974
66064.33825516081
66064.33825516081
66066.6311473467
66074.27412129974
66065.86684995142
66065.86684995142
66085.73858222927
66074.27412129974
66085.73858222927
66074.27412129974
66074.27412129974
66078.85990567156
66080.38850046216
66090.3243666011
66088.79577181049
66088.79577181049
66097.96734055413
66090.3243666011
66090.3243666011
66089.56006920579
66089.56006920579
66101.78882753063
66101.78882753063
66107.90320669305
66114.78188325078
66114.78188325078
66113.25328846017
66108.66750408836
66116.31047804139
66106.37461190244
66106.37461190244
66127.77493897092
66127.77493897092
66114.78188325078
66115.54618064608
66115.54618064608
66130.83212855212
66133.88931813334
66142.29658948166
66142.29658948166
66142.29658948166
66151.4681582253
66161.40402436422
66152.9967530159
66156.81823999241
66156.81823999241
66158.34683478302
66168.28270092195
66168.28270092195
66168.28270092195
66168.28270092195
66166.75410613135
66178.9828644562
66179.74716185148
66179.74716185148
66182.8043514327
66198.85459673405
66187.39013580451
66187.39013580451
66187.39013580451
66191.97592017634
66186.6258384092
66199.61889412935
66200.38319152466
66200.38319152466
66191.97592017634
66208.79046287299
66214.90484203541
66184.33294622331
66184.33294622331
66221.78351859313
66221.78351859313
66218.72632901192
66218.72632901192
66218.72632901192
66232.48368212736
66207.26186808238
66206.49757068708
66205.73327329177
66205.73327329177
66210.3190576636
66196.56170454815
66194.26881236224
66171.33989050316
66171.33989050316
66161.40402436422
66159.87542957363
66155.2896452018
66142.29658948166
66142.29658948166
66123.9534519944
66108.66750408836
66094.91015097291
66078.85990567156
66078.85990567156
66045.23082027824
66020.00900623326
66009.30884269903
65984.08702865404
65984.08702865404
65968.03678335268
65957.33661981845
65926.00042661105
65926.00042661105
65911.4787761003
65873.26390633517
65844.22060531368
65826.64176522172
65826.64176522172
65809.06292512977
65779.25532671296
65740.27615955254
65731.1045908089
65731.1045908089
65704.35418197331
65689.06823406726
65651.61766169744
65639.3889033726
65639.3889033726
65623.33865807124
65594.29535704975
65583.5951935155
65560.66627165643
65560.66627165643
65550.7304055175
65529.33007844903
65516.33702272888
65490.3509112886
65490.3509112886
65485.00082952148
65465.12909724362
65471.24347640604
65435.321498826816
65435.321498826816
65434.55720143151
65443.72877017515
65421.564145711374
65416.21406394425
65416.21406394425
65392.520844689876
65383.349275946246
65380.292086365036
65379.52778896973
65379.52778896973
65360.42035408717
65358.12746190126
65357.36316450596
65357.36316450596
65352.01308273884
65347.42729836702
65338.25572962339
65341.3129192046
65341.3129192046
65331.37705306567
65338.25572962339
65341.3129192046
65322.20548432204
65322.20548432204
65338.25572962339
65332.14135046097
65330.61275567037
65320.67688953144
65320.67688953144
65325.26267390325
65329.084160879764
65326.026971298554
65321.44118692674
65321.44118692674
65350.48448794823
65335.19854004218
65338.25572962339
65341.3129192046
65341.3129192046
65348.19159576233
65350.48448794823
65340.5486218093
65333.66994525158
65333.66994525158
65354.30597492475
65355.07027232005
65349.72019055294
65358.12746190126
65358.12746190126
65355.07027232005
65344.37010878581
65361.18465148247
65368.063328040196
65368.063328040196
65364.24184106368
65361.18465148247
65374.177707202616
65385.64216813215
65385.64216813215
65382.58497855094
65389.463655108666
65392.520844689876
65392.520844689876
65397.10662906169
65400.1638186429
65410.09968478183
65415.449766548954
65415.449766548954
65429.207119664396
65420.035550920766
65418.506956130164
65424.621335292584
65424.621335292584
65438.378688408025
65435.321498826816
65452.136041523474
65440.67158059394
65440.67158059394
65455.193231104684
65453.664636314075
65474.30066598725
65471.24347640604
65471.24347640604
65469.71488161543
65467.421989429524
65464.364799848314
65469.71488161543
65469.71488161543
65493.40810086981
65477.35785556846
65474.30066598725
65477.35785556846
65477.35785556846
65488.05801910269
65490.3509112886
65485.00082952148
65483.47223473088
65483.47223473088
65487.29372170739
65501.05107482283
65495.70099305572
65495.70099305572
65495.70099305572
65488.05801910269
65491.1152086839
65497.22958784633
65493.40810086981
65493.40810086981
65497.22958784633
65502.57966961344
65491.1152086839
65491.1152086839
65509.458346171166
65503.34396700875
65495.70099305572
65494.17239826511
65494.17239826511
65488.05801910269
65508.69404877586
65496.46529045102
65492.64380347451
65492.64380347451
65493.40810086981
65499.52248003223
65500.28677742754
65490.3509112886
65490.3509112886
65499.52248003223
65493.40810086981
