67796.65276828434
67738.95010252905
67693.18591934381
67647.42173615858
67647.42173615858
67597.67805878332
67549.92412850307
67498.19070403281
67462.37525632263
67462.37525632263
67408.65208475734
67384.77511961722
67327.07245386193
67307.17498291182
67307.17498291182
67269.36978810663
67231.56459330143
67195.74914559125
67173.86192754614
67173.86192754614
67140.03622693096
67122.12850307587
67086.31305536568
67086.31305536568
67086.31305536568
67056.46684894053
67054.47710184552
67018.66165413534
67010.70266575529
67010.70266575529
67002.74367737526
66986.82570061517
66992.79494190021
66982.84620642515
66982.84620642515
66962.94873547505
66962.94873547505
66954.98974709501
66964.93848257005
66964.93848257005
66960.95898838004
66949.02050580998
66976.87696514012
66976.87696514012
66954.98974709501
66964.93848257005
66964.93848257005
66966.92822966506
66966.92822966506
66974.88721804511
66972.8974709501
66962.94873547505
66984.83595352016
66984.83595352016
67000.75393028025
66996.77443609023
66992.79494190021
67014.68215994531
67014.68215994531
67024.63089542037
67026.62064251538
67028.61038961039
67040.54887218044
67040.54887218044
67050.4976076555
67056.46684894053
67052.48735475051
67062.43609022556
67062.43609022556
67092.28229665072
67098.25153793575
67084.32330827067
67108.2002734108
67108.2002734108
67130.08749145591
67124.11825017088
67126.10799726589
67142.02597402598
67142.02597402598
67144.01572112099
67163.91319207108
67179.83116883117
67183.81066302118
67183.81066302118
67193.75939849624
67193.75939849624
67209.67737525632
67219.62611073138
67219.62611073138
67225.5953520164
67227.58509911141
67257.43130553656
67257.43130553656
67251.46206425154
67265.39029391661
67261.41079972658
67293.24675324676
67293.24675324676
67293.24675324676
67287.27751196171
67289.26725905674
67313.14422419686
67313.14422419686
67331.05194805194
67331.05194805194
67346.96992481203
67344.98017771702
67344.98017771702
67354.92891319207
67360.8981544771
67356.91866028708
67370.84688995215
67370.84688995215
67368.85714285714
67368.85714285714
67374.82638414217
67372.83663704716
67372.83663704716
67392.73410799727
67386.76486671223
67380.7956254272
67388.75461380725
67388.75461380725
67384.77511961722
67388.75461380725
67388.75461380725
67392.73410799727
67392.73410799727
67392.73410799727
67390.74436090226
67388.75461380725
67394.72385509228
67394.72385509228
67412.63157894737
67394.72385509228
67406.66233766233
67394.72385509228
67394.72385509228
67390.74436090226
67392.73410799727
67402.68284347231
67402.68284347231
67396.71360218729
67396.71360218729
67392.73410799727
67398.7033492823
67398.7033492823
67398.7033492823
67390.74436090226
67404.67259056732
67410.64183185235
67410.64183185235
67414.62132604238
67406.66233766233
67408.65208475734
67414.62132604238
67414.62132604238
67420.59056732741
67416.61107313739
67412.63157894737
67428.54955570745
67428.54955570745
67430.53930280246
67434.51879699247
67422.58031442242
67438.4982911825
67438.4982911825
67442.47778537252
67454.41626794258
67454.41626794258
67452.42652084757
67452.42652084757
67474.31373889268
67480.28298017771
67480.28298017771
67492.22146274778
67492.22146274778
67494.21120984279
67512.11893369789
67537.98564593302
67528.03691045796
67528.03691045796
67528.03691045796
67543.95488721805
67563.85235816815
67563.85235816815
67563.85235816815
67561.86261107314
67583.74982911824
67589.71907040328
67589.71907040328
67593.6985645933
67605.63704716336
67607.62679425837
67627.52426520847
67627.52426520847
67633.4935064935
67647.42173615858
67631.50375939849
67659.36021872865
67659.36021872865
67673.28844839371
67679.25768967874
67699.15516062884
67703.13465481886
67703.13465481886
67711.09364319891
67734.97060833903
67729.00136705399
67734.97060833903
67734.97060833903
67752.87833219412
67774.76555023923
67772.77580314422
67774.76555023923
67774.76555023923
67794.66302118934
67818.53998632946
67808.59125085441
67838.43745727956
67838.43745727956
67842.41695146958
67850.37593984962
67864.3041695147
67872.26315789473
67872.26315789473
67882.2118933698
67886.19138755981
67906.08885850992
67910.06835269993
67910.06835269993
67916.03759398496
67925.98632946
67949.86329460013
67949.86329460013
67953.84278879015
67961.8017771702
67971.75051264525
67987.66848940533
67987.66848940533
67989.65823650034
67997.61722488038
67999.60697197539
68011.54545454546
68011.54545454546
68025.47368421052
68029.45317840055
68031.44292549556
68049.35064935064
68049.35064935064
68061.28913192071
68077.20710868078
68077.20710868078
68099.0943267259
68099.0943267259
68101.08407382091
68109.04306220096
68103.07382091593
68124.96103896103
68124.96103896103
68132.92002734108
68132.92002734108
68138.88926862611
68166.74572795625
68166.74572795625
68160.77648667122
68172.71496924128
68172.71496924128
68184.65345181135
68184.65345181135
68198.58168147641
68208.53041695147
68214.4996582365
68206.54066985646
68206.54066985646
68218.47915242652
68238.37662337662
68234.3971291866
68234.3971291866
68234.3971291866
68250.31510594668
68260.26384142174
68258.27409432673
68258.27409432673
68266.23308270676
68284.14080656186
68270.21257689678
68280.16131237184
68280.16131237184
68286.13055365687
68288.12030075188
68296.07928913191
68292.0997949419
68292.0997949419
68313.98701298701
68313.98701298701
68319.95625427204
68323.93574846206
68323.93574846206
68325.92549555708
68337.86397812713
68349.8024606972
68365.72043745728
68365.72043745728
68359.75119617225
68375.66917293234
68361.74094326726
68391.58714969241
68391.58714969241
68381.63841421736
68395.56664388243
68403.52563226248
68415.46411483253
68415.46411483253
68423.42310321258
68427.4025974026
68429.39234449761
68443.32057416267
68443.32057416267
68441.33082706766
68449.28981544772
68471.17703349282
68465.20779220779
68465.20779220779
68471.17703349282
68489.08475734791
68497.04374572795
68495.05399863294
68495.05399863294
68497.04374572795
68491.07450444292
68503.01298701299
68503.01298701299
68491.07450444292
68497.04374572795
68485.1052631579
68487.0950102529
68487.0950102529
68467.1975393028
68439.34107997266
68415.46411483253
68391.58714969241
68391.58714969241
68367.71018455228
68349.8024606972
68315.97676008202
68288.12030075188
68288.12030075188
68248.32535885167
68212.50991114149
68174.70471633629
68124.96103896103
68124.96103896103
68081.18660287082
68049.35064935064
68005.57621326043
67955.83253588517
67955.83253588517
67912.05809979494
67860.32467532468
67794.66302118934
67762.82706766918
67762.82706766918
67719.05263157895
67663.33971291866
67615.58578263842
67551.91387559808
67551.91387559808
67502.17019822283
67464.36500341764
67412.63157894737
67382.78537252221
67382.78537252221
67329.06220095693
67279.31852358168
67247.48257006152
67247.48257006152
67219.62611073138
67171.87218045113
67136.05673274094
67108.2002734108
67108.2002734108
67078.35406698564
67052.48735475051
67010.70266575529
66992.79494190021
66992.79494190021
66978.86671223513
66945.04101161996
66907.23581681476
66911.21531100478
66911.21531100478
66891.31784005467
66887.33834586466
66853.51264524949
66861.47163362952
66861.47163362952
66853.51264524949
66837.5946684894
66833.61517429938
66835.60492139439
66835.60492139439
66839.58441558441
66833.61517429938
66811.72795625427
66821.67669172933
66821.67669172933
66835.60492139439
66833.61517429938
66831.62542720437
66843.56390977443
66843.56390977443
66837.5946684894
66851.52289815448
66857.4921394395
66863.46138072453
66863.46138072453
66869.43062200958
66869.43062200958
66889.32809295967
66901.26657552973
66901.26657552973
66915.1948051948
66921.16404647984
66929.12303485988
66929.12303485988
66939.07177033492
66945.04101161996
66964.93848257005
66974.88721804511
66974.88721804511
66994.78468899522
67000.75393028025
66994.78468899522
67038.55912508543
67038.55912508543
67026.62064251538
67032.5898838004
67050.4976076555
67062.43609022556
67062.43609022556
67086.31305536568
67102.23103212577
67098.25153793575
67124.11825017088
67124.11825017088
67126.10799726589
67140.03622693096
67144.01572112099
67173.86192754614
67173.86192754614
67183.81066302118
67207.68762816131
67197.73889268626
67219.62611073138
67219.62611073138
67235.54408749145
67247.48257006152
67253.45181134655
67273.34928229665
67273.34928229665
67275.33902939166
67291.25700615175
67291.25700615175
67303.1954887218
67303.1954887218
67309.16473000683
67325.08270676692
67333.04169514695
67331.05194805194
67331.05194805194
67344.98017771702
67358.90840738208
67370.84688995215
67370.84688995215
67376.81613123718
67366.86739576214
67376.81613123718
67392.73410799727
67392.73410799727
67374.82638414217
67376.81613123718
67380.7956254272
67378.80587833219
67378.80587833219
67386.76486671223
67382.78537252221
67374.82638414217
67388.75461380725
67388.75461380725
67374.82638414217
67376.81613123718
67362.88790157212
67376.81613123718
67376.81613123718
67390.74436090226
67382.78537252221
67372.83663704716
67362.88790157212
67362.88790157212
67380.7956254272
67382.78537252221
67372.83663704716
67386.76486671223
67386.76486671223
67378.80587833219
67370.84688995215
67378.80587833219
67380.7956254272
67380.7956254272
67378.80587833219
67368.85714285714
67384.77511961722
67394.72385509228
67394.72385509228
67380.7956254272
67370.84688995215
67378.80587833219
67378.80587833219
67386.76486671223
67386.76486671223
67378.80587833219
67382.78537252221
67382.78537252221
67392.73410799727
67384.77511961722
67382.78537252221
67402.68284347231
67402.68284347231
67412.63157894737
67418.6008202324
67414.62132604238
67412.63157894737
67412.63157894737
67426.55980861244
67426.55980861244
67426.55980861244
67442.47778537252
67442.47778537252
67432.52904989746
67452.42652084757
67466.35475051265
67456.40601503759
67456.40601503759
67468.34449760766
67476.3034859877
67466.35475051265
67480.28298017771
67480.28298017771
67498.19070403281
67498.19070403281
67504.15994531784
67516.0984278879
67516.0984278879
67524.05741626794
67539.97539302803
67547.93438140806
67561.86261107314
67561.86261107314
67569.82159945318
67585.73957621327
67589.71907040328
67607.62679425837
67607.62679425837
67611.6062884484
67623.54477101845
67637.47300068353
67637.47300068353
67639.46274777854
67643.44224196856
67669.30895420369
67679.25768967874
67679.25768967874
67685.22693096378
67701.14490772385
67701.14490772385
67723.03212576896
67723.03212576896
67734.97060833903
67744.91934381408
67746.90909090909
67774.76555023923
67774.76555023923
67780.73479152426
67788.69377990431
67796.65276828434
67816.55023923445
67816.55023923445
67826.4989747095
67832.46821599454
67844.40669856459
67850.37593984962
67850.37593984962
67878.23239917976
67872.26315789473
67878.23239917976
67894.15037593985
67894.15037593985
67912.05809979494
67918.02734107997
67918.02734107997
67947.87354750512
67947.87354750512
67955.83253588517
67973.74025974025
67981.6992481203
67985.67874231032
67985.67874231032
67997.61722488038
68003.5864661654
68019.50444292549
68029.45317840055
68029.45317840055
68045.37115516062
68051.34039644565
68077.20710868078
68077.20710868078
68069.24812030075
68071.23786739576
68095.11483253588
68107.05331510595
68107.05331510595
68115.01230348599
68115.01230348599
68124.96103896103
68134.90977443609
68134.90977443609
68136.8995215311
68160.77648667122
68160.77648667122
68180.67395762133
68180.67395762133
68184.65345181135
68192.61244019138
68202.56117566644
68210.52016404648
68210.52016404648
68210.52016404648
68226.43814080657
68226.43814080657
68234.3971291866
68234.3971291866
68236.38687628161
68250.31510594668
68256.28434723172
68256.28434723172
68256.28434723172
68274.1920710868
68286.13055365687
68284.14080656186
68296.07928913191
68296.07928913191
68298.06903622692
68323.93574846206
68327.91524265209
68325.92549555708
68325.92549555708
68335.87423103212
68345.82296650717
68367.71018455228
68363.73069036227
68363.73069036227
68377.65892002734
68385.61790840738
68399.54613807246
68399.54613807246
68385.61790840738
68405.51537935749
68415.46411483253
68431.38209159262
68431.38209159262
68427.4025974026
68455.25905673274
68433.37183868763
68455.25905673274
68455.25905673274
68463.21804511278
68481.12576896788
68473.16678058784
68479.13602187287
68479.13602187287
68487.0950102529
68497.04374572795
68495.05399863294
68505.002734108
68505.002734108
68520.92071086807
68528.87969924812
68528.87969924812
68536.83868762816
68536.83868762816
68552.75666438825
68552.75666438825
68554.74641148325
68568.67464114832
68568.67464114832
68570.66438824333
68572.65413533835
68588.57211209842
68586.58236500341
68586.58236500341
68576.63362952837
68576.63362952837
68590.56185919343
68576.63362952837
68576.63362952837
68560.71565276828
68538.82843472317
68532.85919343814
68510.97197539303
68510.97197539303
68483.11551606288
68449.28981544772
68421.43335611756
68421.43335611756
68389.5974025974
68359.75119617225
68311.997265892
68282.15105946685
68282.15105946685
68232.4073820916
68206.54066985646
68130.93028024607
68095.11483253588
68095.11483253588
68053.33014354068
67991.64798359535
67953.84278879015
67912.05809979494
67912.05809979494
67852.36568694463
67796.65276828434
67736.96035543404
67703.13465481886
67703.13465481886
67653.3909774436
67591.7088174983
67528.03691045796
67502.17019822283
67502.17019822283
67456.40601503759
67394.72385509228
67362.88790157212
67325.08270676692
67325.08270676692
67275.33902939166
67231.56459330143
67199.72863978127
67169.88243335612
67169.88243335612
67136.05673274094
67124.11825017088
67082.33356117566
67056.46684894053
67056.46684894053
67036.56937799042
66994.78468899522
67000.75393028025
67000.75393028025
66970.9077238551
66968.91797676009
66947.03075871497
66935.0922761449
66935.0922761449
66907.23581681476
66901.26657552973
66895.29733424471
66891.31784005467
66891.31784005467
66891.31784005467
66879.37935748462
66879.37935748462
66879.37935748462
66879.37935748462
66877.38961038961
66889.32809295967
66875.3998632946
66889.32809295967
66889.32809295967
66889.32809295967
66905.24606971975
66895.29733424471
66903.25632262474
66903.25632262474
66921.16404647984
66931.11278195489
66933.1025290499
66947.03075871497
66947.03075871497
66968.91797676009
66968.91797676009
66972.8974709501
66994.78468899522
66994.78468899522
67006.72317156527
67004.73342447027
67026.62064251538
67038.55912508543
67038.55912508543
67046.51811346548
67060.44634313055
67078.35406698564
67082.33356117566
67082.33356117566
67106.21052631579
67120.13875598086
67122.12850307587
67122.12850307587
67136.05673274094
67142.02597402598
67159.93369788106
67179.83116883117
67179.83116883117
67193.75939849624
67205.6978810663
67209.67737525632
67235.54408749145
67235.54408749145
67251.46206425154
67261.41079972658
67267.38004101162
67295.23650034177
67295.23650034177
67295.23650034177
67319.11346548189
67311.15447710184
67339.010936432
67339.010936432
67346.96992481203
67348.95967190704
67370.84688995215
67374.82638414217
67374.82638414217
67394.72385509228
67408.65208475734
67386.76486671223
67406.66233766233
67406.66233766233
67412.63157894737
67416.61107313739
67418.6008202324
67424.57006151743
67424.57006151743
67422.58031442242
67436.5085440875
67448.44702665755
67446.45727956254
67446.45727956254
67448.44702665755
67438.4982911825
67462.37525632263
67462.37525632263
67458.3957621326
67452.42652084757
67446.45727956254
67460.3855092276
67460.3855092276
67454.41626794258
67456.40601503759
67450.43677375256
67458.3957621326
67458.3957621326
67452.42652084757
67442.47778537252
67452.42652084757
67456.40601503759
67456.40601503759
67454.41626794258
67454.41626794258
67432.52904989746
67444.46753246753
67444.46753246753
67440.48803827752
67434.51879699247
67436.5085440875
67442.47778537252
67442.47778537252
67442.47778537252
67438.4982911825
67438.4982911825
67426.55980861244
67426.55980861244
67438.4982911825
67444.46753246753
67444.46753246753
67464.36500341764
67464.36500341764
67450.43677375256
67446.45727956254
67462.37525632263
67450.43677375256
67450.43677375256
67464.36500341764
67444.46753246753
67460.3855092276
67460.3855092276
67460.3855092276
67480.28298017771
67474.31373889268
67486.25222146275
67486.25222146275
67480.28298017771
67482.27272727272
67494.21120984279
67508.13943950785
67508.13943950785
67520.07792207792
67514.1086807929
67528.03691045796
67539.97539302803
67539.97539302803
67547.93438140806
67555.8933697881
67547.93438140806
67565.84210526316
67565.84210526316
67557.88311688311
67577.78058783321
67577.78058783321
67595.68831168831
67595.68831168831
67603.64730006835
67601.65755297334
67613.5960355434
67639.46274777854
67639.46274777854
67633.4935064935
67643.44224196856
67647.42173615858
67673.28844839371
67673.28844839371
67673.28844839371
67687.21667805879
67695.17566643882
67691.1961722488
67691.1961722488
67721.04237867396
67723.03212576896
67738.95010252905
67770.78605604921
67770.78605604921
67760.83732057417
67780.73479152426
67784.71428571429
67784.71428571429
67796.65276828434
67800.63226247436
67810.58099794942
67824.50922761449
67824.50922761449
67834.45796308955
67836.44771018456
67854.35543403964
67864.3041695147
67864.3041695147
67882.2118933698
67884.2016404648
67882.2118933698
67910.06835269993
67910.06835269993
67910.06835269993
67925.98632946
67931.95557074505
67947.87354750512
67947.87354750512
67959.81203007519
67961.8017771702
67969.76076555024
67991.64798359535
67991.64798359535
67997.61722488038
68005.57621326043
68001.5967190704
68019.50444292549
68019.50444292549
68031.44292549556
68053.33014354068
68043.38140806562
68047.36090225563
68047.36090225563
68065.26862611073
68091.13533834586
68097.10457963089
68095.11483253588
68095.11483253588
68103.07382091593
68120.98154477101
68122.97129186602
68128.94053315106
68128.94053315106
68128.94053315106
68144.85850991114
68156.7969924812
68156.7969924812
68164.75598086124
68164.75598086124
68186.64319890636
68198.58168147641
68198.58168147641
68188.63294600137
68212.50991114149
68186.64319890636
68218.47915242652
68218.47915242652
68228.42788790158
68236.38687628161
68230.41763499659
68236.38687628161
68236.38687628161
68256.28434723172
68254.29460013671
68254.29460013671
68274.1920710868
68274.1920710868
68286.13055365687
68294.0895420369
68284.14080656186
68302.04853041696
68302.04853041696
68304.03827751197
68313.98701298701
68317.96650717703
68329.9049897471
68329.9049897471
68333.88448393712
68327.91524265209
68355.77170198223
68351.79220779221
68351.79220779221
68359.75119617225
68361.74094326726
68369.6999316473
68371.6896787423
68371.6896787423
68381.63841421736
68385.61790840738
68403.52563226248
68403.52563226248
68389.5974025974
68395.56664388243
68409.4948735475
68413.47436773752
68413.47436773752
68413.47436773752
68419.44360902255
68421.43335611756
68425.41285030759
68425.41285030759
68431.38209159262
68445.31032125768
68437.35133287765
68453.26930963773
68453.26930963773
68455.25905673274
68463.21804511278
68477.14627477786
68479.13602187287
68479.13602187287
68487.0950102529
68487.0950102529
68510.97197539303
68526.88995215311
68526.88995215311
68518.93096377306
68522.9104579631
68514.95146958304
68532.85919343814
68532.85919343814
68550.76691729324
68558.72590567327
68556.73615857826
68564.6951469583
68564.6951469583
68582.6028708134
68586.58236500341
68588.57211209842
68594.54135338345
68594.54135338345
68604.49008885851
68610.45933014354
68602.5003417635
68624.38755980862
68624.38755980862
68618.41831852357
68624.38755980862
68636.32604237867
68636.32604237867
68628.36705399863
68622.3978127136
68614.43882433356
68608.46958304853
68608.46958304853
68582.6028708134
68572.65413533835
68532.85919343814
68536.83868762816
68536.83868762816
68514.95146958304
68471.17703349282
68445.31032125768
68415.46411483253
68415.46411483253
68381.63841421736
68337.86397812713
68286.13055365687
68246.33561175666
68246.33561175666
68226.43814080657
68162.76623376623
68113.02255639098
68067.25837320574
68067.25837320574
68013.53520164046
67959.81203007519
67898.12987012987
67846.3964456596
67846.3964456596
67798.64251537935
67732.98086124402
67693.18591934381
67645.43198906357
67645.43198906357
67597.67805878332
67549.92412850307
67494.21120984279
67450.43677375256
67450.43677375256
67394.72385509228
67354.92891319207
67307.17498291182
67271.35953520164
67271.35953520164
67225.5953520164
67183.81066302118
67169.88243335612
67169.88243335612
67116.15926179085
67082.33356117566
67062.43609022556
67040.54887218044
67040.54887218044
67022.64114832536
66968.91797676009
66960.95898838004
66947.03075871497
66947.03075871497
66929.12303485988
66925.14354066986
66901.26657552973
66891.31784005467
66891.31784005467
66887.33834586466
66867.44087491455
66857.4921394395
66871.42036910458
66871.42036910458
66861.47163362952
66859.48188653452
66855.5023923445
66847.54340396446
66847.54340396446
66865.45112781954
66867.44087491455
66861.47163362952
66867.44087491455
66867.44087491455
66869.43062200958
66885.34859876965
66887.33834586466
66907.23581681476
66907.23581681476
66915.1948051948
66925.14354066986
66937.08202323991
66949.02050580998
66949.02050580998
66945.04101161996
66964.93848257005
66984.83595352016
66984.83595352016
66992.79494190021
66996.77443609023
67016.67190704032
67028.61038961039
67028.61038961039
67032.5898838004
67052.48735475051
67062.43609022556
67078.35406698564
67078.35406698564
67082.33356117566
67096.26179084074
67104.22077922078
67116.15926179085
67116.15926179085
67138.04647983595
67144.01572112099
67138.04647983595
67173.86192754614
67173.86192754614
67177.84142173616
67205.6978810663
67205.6978810663
67235.54408749145
67235.54408749145
67237.53383458646
67275.33902939166
67243.5030758715
67287.27751196171
67287.27751196171
67295.23650034177
67299.21599453178
67305.18523581681
67327.07245386193
67327.07245386193
67325.08270676692
67333.04169514695
67356.91866028708
67352.93916609706
67352.93916609706
67360.8981544771
67362.88790157212
67374.82638414217
67386.76486671223
67386.76486671223
67380.7956254272
67386.76486671223
67384.77511961722
67384.77511961722
67394.72385509228
67384.77511961722
67400.6930963773
67394.72385509228
67394.72385509228
67384.77511961722
67384.77511961722
67396.71360218729
67400.6930963773
67400.6930963773
67380.7956254272
67394.72385509228
67374.82638414217
67390.74436090226
67390.74436090226
67378.80587833219
67366.86739576214
67368.85714285714
67372.83663704716
67372.83663704716
67368.85714285714
67364.87764866713
67350.94941900205
67362.88790157212
67362.88790157212
67362.88790157212
67350.94941900205
67344.98017771702
67352.93916609706
67352.93916609706
67358.90840738208
67335.03144224196
67344.98017771702
67346.96992481203
67346.96992481203
67348.95967190704
67350.94941900205
67341.000683527
67346.96992481203
67346.96992481203
67360.8981544771
67348.95967190704
67350.94941900205
67358.90840738208
67358.90840738208
67356.91866028708
67364.87764866713
67366.86739576214
67366.86739576214
67364.87764866713
67366.86739576214
67374.82638414217
67388.75461380725
67388.75461380725
67380.7956254272
67378.80587833219
67380.7956254272
67380.7956254272
67380.7956254272
67408.65208475734
67398.7033492823
67406.66233766233
67410.64183185235
67410.64183185235
67422.58031442242
67434.51879699247
67428.54955570745
67448.44702665755
67448.44702665755
67458.3957621326
67448.44702665755
67462.37525632263
67468.34449760766
67468.34449760766
67474.31373889268
67488.24196855776
67496.2009569378
67512.11893369789
67512.11893369789
67518.08817498291
67545.94463431305
67524.05741626794
67545.94463431305
67545.94463431305
67557.88311688311
67561.86261107314
67571.81134654819
67587.72932330827
67587.72932330827
67587.72932330827
67605.63704716336
67629.51401230348
67625.53451811346
67625.53451811346
67627.52426520847
67643.44224196856
67663.33971291866
67663.33971291866
67659.36021872865
67677.26794258373
67679.25768967874
67701.14490772385
67701.14490772385
67705.12440191387
67717.06288448394
67723.03212576896
67732.98086124402
67732.98086124402
67740.93984962406
67760.83732057417
67762.82706766918
67774.76555023923
67774.76555023923
67788.69377990431
67800.63226247436
67784.71428571429
67810.58099794942
67810.58099794942
67798.64251537935
67822.51948051948
67824.50922761449
67850.37593984962
67850.37593984962
67856.34518113466
67860.32467532468
67852.36568694463
67878.23239917976
67878.23239917976
67890.17088174983
67882.2118933698
67898.12987012987
67920.01708817498
67920.01708817498
67918.02734107997
67933.94531784006
67933.94531784006
67957.82228298018
67957.82228298018
67959.81203007519
67959.81203007519
67973.74025974025
67977.71975393027
67977.71975393027
67983.68899521531
67991.64798359535
68015.52494873547
68015.52494873547
68023.48393711551
68019.50444292549
68021.4941900205
68033.43267259057
68033.43267259057
68035.42241968558
68047.36090225563
68049.35064935064
68073.22761449077
68073.22761449077
68065.26862611073
68071.23786739576
68079.19685577581
68093.12508544087
68093.12508544087
68091.13533834586
68101.08407382091
68103.07382091593
68107.05331510595
68107.05331510595
68107.05331510595
68115.01230348599
68115.01230348599
68150.82775119616
68150.82775119616
68138.88926862611
68150.82775119616
68144.85850991114
68164.75598086124
68164.75598086124
68166.74572795625
68180.67395762133
68186.64319890636
68190.62269309637
68190.62269309637
68196.5919343814
68202.56117566644
68206.54066985646
68216.48940533151
68216.48940533151
68218.47915242652
68226.43814080657
68234.3971291866
68234.3971291866
68232.4073820916
68234.3971291866
68250.31510594668
68264.24333561175
68264.24333561175
68268.22282980177
68262.25358851675
68262.25358851675
68266.23308270676
68266.23308270676
68276.18181818182
68288.12030075188
68298.06903622692
68319.95625427204
68319.95625427204
68306.02802460697
68315.97676008202
68306.02802460697
68325.92549555708
68325.92549555708
68339.85372522214
68345.82296650717
68343.83321941216
68351.79220779221
68351.79220779221
68355.77170198223
68365.72043745728
68359.75119617225
68373.67942583731
68373.67942583731
68379.64866712235
68401.53588516747
68393.57689678742
68407.5051264525
68407.5051264525
68409.4948735475
68419.44360902255
68435.36158578264
68439.34107997266
68439.34107997266
68467.1975393028
68459.23855092276
68479.13602187287
68489.08475734791
68489.08475734791
68479.13602187287
68489.08475734791
68497.04374572795
68497.04374572795
68489.08475734791
68501.02323991798
68503.01298701299
68505.002734108
68505.002734108
68503.01298701299
68501.02323991798
68485.1052631579
68477.14627477786
68477.14627477786
68473.16678058784
68453.26930963773
68419.44360902255
68399.54613807246
68399.54613807246
68373.67942583731
68359.75119617225
68317.96650717703
68280.16131237184
68280.16131237184
68246.33561175666
68196.5919343814
68146.84825700615
68118.991797676
68118.991797676
68065.26862611073
68017.51469583048
67963.79152426521
67916.03759398496
67916.03759398496
67864.3041695147
67800.63226247436
67752.87833219412
67709.1038961039
67709.1038961039
67657.37047163362
67595.68831168831
67555.8933697881
67494.21120984279
67494.21120984279
67456.40601503759
67406.66233766233
67370.84688995215
67370.84688995215
67311.15447710184
67249.47231715653
67211.66712235133
67187.7901572112
67187.7901572112
67130.08749145591
67094.27204374573
67062.43609022556
67034.57963089542
67034.57963089542
67008.71291866028
66984.83595352016
66956.97949419002
66929.12303485988
66929.12303485988
66895.29733424471
66875.3998632946
66869.43062200958
66841.57416267942
66841.57416267942
66823.66643882434
66823.66643882434
66801.77922077922
66781.88174982912
66781.88174982912
66785.86124401914
66779.89200273411
66777.9022556391
66769.94326725905
66769.94326725905
66771.93301435407
66779.89200273411
66781.88174982912
66773.92276144908
66773.92276144908
66773.92276144908
66781.88174982912
66795.8099794942
66795.8099794942
66795.8099794942
66809.73820915926
66811.72795625427
66809.73820915926
66809.73820915926
66825.65618591935
66835.60492139439
66843.56390977443
66877.38961038961
66877.38961038961
66883.35885167464
66879.37935748462
66883.35885167464
66907.23581681476
66907.23581681476
66923.15379357485
66929.12303485988
66933.1025290499
66953.0
66953.0
66964.93848257005
66986.82570061517
66996.77443609023
67008.71291866028
67008.71291866028
67028.61038961039
67034.57963089542
67040.54887218044
67066.41558441559
67066.41558441559
67080.34381408065
67080.34381408065
67092.28229665072
67116.15926179085
67116.15926179085
67124.11825017088
67155.95420369104
67171.87218045113
67175.85167464115
67175.85167464115
67187.7901572112
67197.73889268626
67217.63636363637
67221.61585782639
67221.61585782639
67235.54408749145
67245.49282296651
67265.39029391661
67265.39029391661
67265.39029391661
67279.31852358168
67283.2980177717
67305.18523581681
67305.18523581681
67297.22624743677
67313.14422419686
67317.12371838688
67339.010936432
67339.010936432
67327.07245386193
67327.07245386193
67323.0929596719
67329.06220095693
67329.06220095693
67339.010936432
67350.94941900205
67344.98017771702
67350.94941900205
67350.94941900205
67335.03144224196
67329.06220095693
67327.07245386193
67335.03144224196
67335.03144224196
67346.96992481203
67346.96992481203
67321.1032125769
67325.08270676692
67325.08270676692
67323.0929596719
67327.07245386193
67327.07245386193
67311.15447710184
67311.15447710184
67329.06220095693
67327.07245386193
67315.13397129187
67319.11346548189
67319.11346548189
67315.13397129187
67317.12371838688
67303.1954887218
67299.21599453178
67299.21599453178
67291.25700615175
67285.2877648667
67287.27751196171
67287.27751196171
67289.26725905674
67297.22624743677
67289.26725905674
67297.22624743677
67297.22624743677
67285.2877648667
67297.22624743677
67281.30827067669
67283.2980177717
67283.2980177717
67285.2877648667
67307.17498291182
67289.26725905674
67293.24675324676
67293.24675324676
67297.22624743677
67311.15447710184
67307.17498291182
67309.16473000683
67309.16473000683
67323.0929596719
67321.1032125769
67317.12371838688
67327.07245386193
67327.07245386193
67333.04169514695
67358.90840738208
67339.010936432
67366.86739576214
67366.86739576214
67358.90840738208
67378.80587833219
67380.7956254272
67388.75461380725
67388.75461380725
67410.64183185235
67416.61107313739
67428.54955570745
67438.4982911825
67438.4982911825
67444.46753246753
67448.44702665755
67464.36500341764
67464.36500341764
67456.40601503759
67468.34449760766
67480.28298017771
67496.2009569378
67496.2009569378
67500.18045112782
67508.13943950785
67504.15994531784
67526.04716336295
67526.04716336295
67535.99589883801
67547.93438140806
67559.87286397813
67577.78058783321
67577.78058783321
67577.78058783321
67585.73957621327
67591.7088174983
67619.56527682843
67619.56527682843
67613.5960355434
67633.4935064935
67641.45249487355
67665.32946001367
67665.32946001367
67669.30895420369
67677.26794258373
67679.25768967874
67691.1961722488
67691.1961722488
67707.11414900888
67727.01161995898
67723.03212576896
67748.8988380041
67748.8988380041
67756.85782638413
67750.8885850991
67766.8065618592
67780.73479152426
67780.73479152426
67790.68352699932
67796.65276828434
67824.50922761449
67824.50922761449
67818.53998632946
67828.4887218045
67842.41695146958
67868.28366370471
67868.28366370471
67850.37593984962
67866.2939166097
67874.25290498974
67872.26315789473
67872.26315789473
67888.18113465482
67894.15037593985
67908.07860560493
67912.05809979494
67912.05809979494
67923.996582365
67931.95557074505
67935.93506493507
67945.88380041011
67945.88380041011
67959.81203007519
67961.8017771702
67971.75051264525
67979.7095010253
67979.7095010253
67995.62747778537
67991.64798359535
67991.64798359535
68021.4941900205
68021.4941900205
68041.3916609706
68027.46343130553
68029.45317840055
68049.35064935064
68049.35064935064
68057.3096377307
68061.28913192071
68067.25837320574
68085.16609706084
68085.16609706084
68085.16609706084
68099.0943267259
68097.10457963089
68122.97129186602
68122.97129186602
68115.01230348599
68120.98154477101
68140.87901572112
68140.87901572112
68140.87901572112
68148.83800410116
68150.82775119616
68164.75598086124
68164.75598086124
68170.72522214627
68176.69446343131
68180.67395762133
68196.5919343814
68196.5919343814
68200.57142857142
68192.61244019138
68196.5919343814
68218.47915242652
68218.47915242652
68212.50991114149
68218.47915242652
68228.42788790158
68244.34586466165
68244.34586466165
68232.4073820916
68234.3971291866
68244.34586466165
68250.31510594668
68250.31510594668
68266.23308270676
68264.24333561175
68268.22282980177
68288.12030075188
68288.12030075188
68292.0997949419
68302.04853041696
68308.01777170198
68310.00751879699
68310.00751879699
68311.997265892
68317.96650717703
68333.88448393712
68335.87423103212
68335.87423103212
68327.91524265209
68341.84347231715
68353.78195488722
68353.78195488722
68357.76144907724
68371.6896787423
68373.67942583731
68401.53588516747
68401.53588516747
68377.65892002734
68391.58714969241
68389.5974025974
68405.51537935749
68405.51537935749
68407.5051264525
68433.37183868763
68423.42310321258
68433.37183868763
68433.37183868763
68441.33082706766
68451.27956254272
68455.25905673274
68457.24880382775
68457.24880382775
68467.1975393028
68479.13602187287
68473.16678058784
68489.08475734791
68489.08475734791
68483.11551606288
68510.97197539303
68510.97197539303
68512.96172248803
68512.96172248803
68530.86944634313
68536.83868762816
68542.80792891319
68550.76691729324
68550.76691729324
68550.76691729324
68550.76691729324
68552.75666438825
68530.86944634313
68530.86944634313
68536.83868762816
68516.94121667805
68487.0950102529
68487.0950102529
68473.16678058784
68455.25905673274
68413.47436773752
68403.52563226248
68403.52563226248
68355.77170198223
68317.96650717703
68270.21257689678
68238.37662337662
68238.37662337662
68188.63294600137
68130.93028024607
68101.08407382091
68041.3916609706
68041.3916609706
67997.61722488038
67935.93506493507
67874.25290498974
67816.55023923445
67816.55023923445
67766.8065618592
67705.12440191387
67631.50375939849
67593.6985645933
67593.6985645933
67530.02665755297
67476.3034859877
67402.68284347231
67374.82638414217
67374.82638414217
67313.14422419686
67267.38004101162
67201.71838687628
67157.94395078605
67157.94395078605
67114.16951469582
67064.42583732057
67028.61038961039
67002.74367737526
67002.74367737526
66947.03075871497
66905.24606971975
66871.42036910458
66843.56390977443
66843.56390977443
66807.74846206425
66773.92276144908
66754.02529049898
66754.02529049898
66736.11756664388
66716.22009569377
66674.43540669857
66670.45591250854
66670.45591250854
66660.50717703349
66628.67122351333
66634.64046479836
66620.71223513328
66620.71223513328
66624.69172932331
66608.77375256323
66600.81476418319
66600.81476418319
66600.81476418319
66584.8967874231
66598.82501708818
66592.85577580314
66590.86602870813
66590.86602870813
66600.81476418319
66606.78400546822
66602.8045112782
66622.7019822283
66622.7019822283
66614.74299384825
66622.7019822283
66618.72248803827
66634.64046479836
66634.64046479836
66642.5994531784
66646.57894736841
66656.52768284347
66666.47641831852
66666.47641831852
66676.42515379358
66690.35338345864
66690.35338345864
66690.35338345864
66690.35338345864
66706.27136021873
66716.22009569377
66722.18933697882
66734.12781954887
66734.12781954887
66742.0868079289
66746.06630211894
66781.88174982912
66781.88174982912
66773.92276144908
66777.9022556391
66779.89200273411
66795.8099794942
66795.8099794942
66799.78947368421
66805.75871496924
66837.5946684894
66837.5946684894
66837.5946684894
66845.55365686945
66845.55365686945
66855.5023923445
66863.46138072453
66863.46138072453
66883.35885167464
66885.34859876965
66897.28708133972
66905.24606971975
66905.24606971975
66935.0922761449
66931.11278195489
66939.07177033492
66945.04101161996
66945.04101161996
66956.97949419002
66962.94873547505
66968.91797676009
66978.86671223513
66978.86671223513
66988.81544771018
66998.76418318524
67004.73342447027
67014.68215994531
67014.68215994531
67022.64114832536
67022.64114832536
67046.51811346548
67036.56937799042
67036.56937799042
67038.55912508543
67046.51811346548
67060.44634313055
67060.44634313055
67060.44634313055
67038.55912508543
67066.41558441559
67078.35406698564
67078.35406698564
67070.39507860561
67072.38482570062
67074.37457279563
67076.36431989064
67076.36431989064
67078.35406698564
67078.35406698564
67068.4053315106
67090.2925495557
67090.2925495557
67094.27204374573
67082.33356117566
67078.35406698564
67078.35406698564
67078.35406698564
67082.33356117566
67076.36431989064
67070.39507860561
67092.28229665072
67092.28229665072
67078.35406698564
67088.30280246069
67076.36431989064
67096.26179084074
67096.26179084074
67090.2925495557
67088.30280246069
67092.28229665072
67088.30280246069
67088.30280246069
67076.36431989064
67084.32330827067
67086.31305536568
67088.30280246069
67088.30280246069
67100.24128503076
67092.28229665072
67098.25153793575
67104.22077922078
67104.22077922078
67102.23103212577
67112.17976760081
67126.10799726589
67126.10799726589
67112.17976760081
67116.15926179085
67122.12850307587
67134.06698564593
67134.06698564593
67134.06698564593
67151.97470950102
67149.98496240602
67155.95420369104
67155.95420369104
67161.92344497607
67171.87218045113
67167.89268626111
67189.77990430623
67189.77990430623
67187.7901572112
67197.73889268626
67195.74914559125
67233.55434039644
67233.55434039644
67223.6056049214
67235.54408749145
67229.57484620642
67245.49282296651
67245.49282296651
67255.44155844155
67263.40054682159
67257.43130553656
67293.24675324676
67293.24675324676
67297.22624743677
67291.25700615175
67307.17498291182
67329.06220095693
67329.06220095693
67333.04169514695
67346.96992481203
67346.96992481203
67366.86739576214
67366.86739576214
67376.81613123718
67388.75461380725
67408.65208475734
67410.64183185235
67410.64183185235
67414.62132604238
67432.52904989746
67438.4982911825
67438.4982911825
67450.43677375256
67458.3957621326
67470.33424470267
67478.2932330827
67478.2932330827
67490.23171565277
67506.14969241284
67510.12918660286
67516.0984278879
67516.0984278879
67534.00615174299
67547.93438140806
67545.94463431305
67561.86261107314
67561.86261107314
67585.73957621327
67575.7908407382
67579.77033492822
67601.65755297334
67601.65755297334
67613.5960355434
67627.52426520847
67627.52426520847
67633.4935064935
67633.4935064935
67655.38072453861
67665.32946001367
67667.31920710868
67679.25768967874
67679.25768967874
67691.1961722488
67693.18591934381
67701.14490772385
67729.00136705399
67729.00136705399
67732.98086124402
67758.84757347916
67748.8988380041
67762.82706766918
67762.82706766918
67770.78605604921
67776.75529733424
67784.71428571429
67796.65276828434
67796.65276828434
67804.61175666438
67822.51948051948
67830.47846889951
67830.47846889951
67854.35543403964
67834.45796308955
67856.34518113466
67858.33492822967
67858.33492822967
67868.28366370471
67878.23239917976
67874.25290498974
67888.18113465482
67888.18113465482
67902.10936431988
67902.10936431988
67900.11961722487
67922.00683526999
67922.00683526999
67927.97607655502
67922.00683526999
67931.95557074505
67951.85304169514
67951.85304169514
67965.78127136022
67969.76076555024
67965.78127136022
67971.75051264525
67971.75051264525
67981.6992481203
67995.62747778537
67989.65823650034
68001.5967190704
68001.5967190704
68015.52494873547
68023.48393711551
68019.50444292549
68029.45317840055
68029.45317840055
68049.35064935064
68041.3916609706
68051.34039644565
68055.31989063568
68055.31989063568
68059.2993848257
68063.27887901572
68075.21736158578
68075.21736158578
68075.21736158578
68093.12508544087
68093.12508544087
68109.04306220096
68109.04306220096
68109.04306220096
68113.02255639098
68118.991797676
68126.95078605604
68126.95078605604
68136.8995215311
68132.92002734108
68142.86876281613
68148.83800410116
68148.83800410116
68158.78673957622
68164.75598086124
68152.81749829119
68162.76623376623
68162.76623376623
68168.73547505126
68186.64319890636
68190.62269309637
68184.65345181135
68184.65345181135
68200.57142857142
68208.53041695147
68208.53041695147
68214.4996582365
68214.4996582365
68228.42788790158
68232.4073820916
68238.37662337662
68248.32535885167
68248.32535885167
68260.26384142174
68258.27409432673
68272.20232399179
68278.17156527683
68278.17156527683
68282.15105946685
68294.0895420369
68300.05878332195
68298.06903622692
68298.06903622692
68306.02802460697
68321.94600136705
68317.96650717703
68331.8947368421
68331.8947368421
68339.85372522214
68359.75119617225
68359.75119617225
68359.75119617225
68359.75119617225
68377.65892002734
68389.5974025974
68403.52563226248
68403.52563226248
68399.54613807246
68415.46411483253
68413.47436773752
68427.4025974026
68427.4025974026
68441.33082706766
68435.36158578264
68445.31032125768
68443.32057416267
68443.32057416267
68447.30006835269
68443.32057416267
68433.37183868763
68431.38209159262
68431.38209159262
68415.46411483253
68399.54613807246
68377.65892002734
68357.76144907724
68357.76144907724
68329.9049897471
68300.05878332195
68256.28434723172
68236.38687628161
68236.38687628161
68192.61244019138
68148.83800410116
68103.07382091593
68071.23786739576
68071.23786739576
68009.55570745045
67949.86329460013
67912.05809979494
67850.37593984962
67850.37593984962
67792.67327409433
67723.03212576896
67687.21667805879
67625.53451811346
67625.53451811346
67561.86261107314
67508.13943950785
67448.44702665755
67448.44702665755
67384.77511961722
67352.93916609706
67267.38004101162
67227.58509911141
67227.58509911141
67155.95420369104
67110.1900205058
67048.5078605605
67012.6924128503
67012.6924128503
66966.92822966506
66933.1025290499
66873.4101161996
66845.55365686945
66845.55365686945
66795.8099794942
66771.93301435407
66728.15857826384
66706.27136021873
66706.27136021873
66674.43540669857
66636.63021189337
66618.72248803827
66594.84552289815
66594.84552289815
66584.8967874231
66570.96855775802
66543.11209842788
66535.15311004785
66535.15311004785
66529.18386876282
66525.2043745728
66509.28639781271
66517.24538619275
66517.24538619275
66497.34791524264
66493.36842105263
66489.38892686261
66483.41968557758
66483.41968557758
66479.44019138756
66487.3991797676
66497.34791524264
66497.34791524264
66489.38892686261
66497.34791524264
66497.34791524264
66513.26589200273
66513.26589200273
66511.27614490772
66521.22488038277
66529.18386876282
66535.15311004785
66535.15311004785
66549.08133971292
66549.08133971292
66547.0915926179
66555.05058099795
66555.05058099795
66572.95830485305
66574.94805194806
66578.92754613807
66596.83526999316
66596.83526999316
66604.79425837321
66624.69172932331
66612.75324675324
66628.67122351333
66628.67122351333
66646.57894736841
66648.56869446344
66660.50717703349
66658.51742993848
66658.51742993848
66668.46616541353
66686.37388926862
66674.43540669857
66704.28161312372
66704.28161312372
66698.31237183869
66706.27136021873
66722.18933697882
66728.15857826384
66728.15857826384
66732.13807245386
66740.0970608339
66765.96377306903
66771.93301435407
66771.93301435407
66769.94326725905
66801.77922077922
66801.77922077922
66801.77922077922
66803.76896787423
66805.75871496924
66821.67669172933
66841.57416267942
66841.57416267942
66839.58441558441
66857.4921394395
66867.44087491455
66869.43062200958
66869.43062200958
66881.36910457963
66899.27682843473
66897.28708133972
66909.22556390977
66909.22556390977
66915.1948051948
66919.17429938483
66929.12303485988
66933.1025290499
66933.1025290499
66929.12303485988
66949.02050580998
66945.04101161996
66958.96924128503
66958.96924128503
66970.9077238551
66966.92822966506
66964.93848257005
66978.86671223513
66978.86671223513
66990.80519480519
66982.84620642515
66984.83595352016
66990.80519480519
66990.80519480519
67004.73342447027
67010.70266575529
67000.75393028025
67006.72317156527
67006.72317156527
67004.73342447027
67018.66165413534
67010.70266575529
67014.68215994531
67014.68215994531
67004.73342447027
67008.71291866028
67016.67190704032
67016.67190704032
67020.65140123035
67012.6924128503
67002.74367737526
67028.61038961039
67028.61038961039
67022.64114832536
67024.63089542037
67022.64114832536
67028.61038961039
67028.61038961039
67028.61038961039
67036.56937799042
67026.62064251538
67040.54887218044
67040.54887218044
67046.51811346548
67048.5078605605
67040.54887218044
67062.43609022556
67062.43609022556
67050.4976076555
67068.4053315106
67060.44634313055
67066.41558441559
67066.41558441559
67092.28229665072
67088.30280246069
67098.25153793575
67098.25153793575
67098.25153793575
67102.23103212577
67116.15926179085
67120.13875598086
67120.13875598086
67120.13875598086
67128.0977443609
67146.005468216
67157.94395078605
67157.94395078605
67157.94395078605
67153.96445659603
67167.89268626111
67189.77990430623
67195.74914559125
67195.74914559125
67197.73889268626
67211.66712235133
67221.61585782639
67221.61585782639
67223.6056049214
67229.57484620642
67239.52358168148
67251.46206425154
67251.46206425154
67267.38004101162
67273.34928229665
67289.26725905674
67291.25700615175
67291.25700615175
67301.20574162679
67317.12371838688
67329.06220095693
67348.95967190704
67348.95967190704
67344.98017771702
67368.85714285714
67354.92891319207
67382.78537252221
67382.78537252221
67398.7033492823
67410.64183185235
67416.61107313739
67430.53930280246
67430.53930280246
67440.48803827752
67448.44702665755
67450.43677375256
67472.32399179768
67472.32399179768
67480.28298017771
67490.23171565277
67512.11893369789
67522.06766917293
67522.06766917293
67534.00615174299
67543.95488721805
67545.94463431305
67571.81134654819
67571.81134654819
67575.7908407382
67589.71907040328
67611.6062884484
67611.6062884484
67611.6062884484
67615.58578263842
67623.54477101845
67641.45249487355
67641.45249487355
67647.42173615858
67655.38072453861
67669.30895420369
67689.2064251538
67689.2064251538
67691.1961722488
67709.1038961039
67719.05263157895
67738.95010252905
67738.95010252905
67738.95010252905
67744.91934381408
67748.8988380041
67770.78605604921
67770.78605604921
67786.7040328093
67796.65276828434
67792.67327409433
67814.56049213944
67814.56049213944
67822.51948051948
67822.51948051948
67840.42720437457
67852.36568694463
67852.36568694463
67866.2939166097
67854.35543403964
67892.16062884484
67896.14012303486
67896.14012303486
67898.12987012987
67931.95557074505
67922.00683526999
67912.05809979494
67912.05809979494
67947.87354750512
67951.85304169514
67965.78127136022
67973.74025974025
67973.74025974025
67969.76076555024
67997.61722488038
68013.53520164046
68003.5864661654
68003.5864661654
68025.47368421052
68023.48393711551
68035.42241968558
68035.42241968558
68053.33014354068
68043.38140806562
68045.37115516062
68069.24812030075
68069.24812030075
68063.27887901572
68083.17634996583
68083.17634996583
68087.15584415584
68087.15584415584
68101.08407382091
68103.07382091593
68115.01230348599
68138.88926862611
68138.88926862611
68132.92002734108
68156.7969924812
68138.88926862611
68166.74572795625
68166.74572795625
68170.72522214627
68176.69446343131
68166.74572795625
68194.6021872864
68194.6021872864
68200.57142857142
68224.44839371154
68214.4996582365
68224.44839371154
68224.44839371154
68238.37662337662
68238.37662337662
68250.31510594668
68264.24333561175
68264.24333561175
68266.23308270676
68268.22282980177
68282.15105946685
68298.06903622692
68298.06903622692
68292.0997949419
68306.02802460697
68302.04853041696
68325.92549555708
68325.92549555708
68327.91524265209
68333.88448393712
68341.84347231715
68341.84347231715
68349.8024606972
68353.78195488722
68369.6999316473
68375.66917293234
68375.66917293234
68379.64866712235
68387.60765550239
68397.55639097744
68407.5051264525
68407.5051264525
68413.47436773752
68415.46411483253
68427.4025974026
68433.37183868763
68433.37183868763
68437.35133287765
68455.25905673274
68461.22829801777
68477.14627477786
68477.14627477786
68483.11551606288
68485.1052631579
68497.04374572795
68508.98222829802
68508.98222829802
68516.94121667805
68534.84894053315
68534.84894053315
68546.78742310322
68546.78742310322
68558.72590567327
68568.67464114832
68584.5926179084
68578.62337662338
68578.62337662338
68592.55160628844
68606.47983595352
68624.38755980862
68624.38755980862
68624.38755980862
68640.30553656869
68642.2952836637
68658.21326042378
68656.22351332878
68656.22351332878
68670.15174299385
68672.14149008886
68668.16199589883
68668.16199589883
68662.1927546138
68650.25427204375
68650.25427204375
68644.2850307587
68644.2850307587
68618.41831852357
68602.5003417635
68570.66438824333
68548.77717019823
68548.77717019823
68510.97197539303
68493.06425153793
68443.32057416267
68425.41285030759
68425.41285030759
68381.63841421736
68345.82296650717
68282.15105946685
68252.3048530417
68252.3048530417
68214.4996582365
68146.84825700615
68089.14559125085
68045.37115516062
68045.37115516062
67987.66848940533
67935.93506493507
67860.32467532468
67824.50922761449
67824.50922761449
67762.82706766918
67711.09364319891
67665.32946001367
67599.66780587833
67599.66780587833
67539.97539302803
67496.2009569378
67444.46753246753
67384.77511961722
67384.77511961722
67333.04169514695
67289.26725905674
67251.46206425154
67193.75939849624
67193.75939849624
67149.98496240602
67104.22077922078
67084.32330827067
67084.32330827067
67040.54887218044
66998.76418318524
66972.8974709501
66939.07177033492
66939.07177033492
66909.22556390977
66883.35885167464
66841.57416267942
66839.58441558441
66839.58441558441
66823.66643882434
66793.82023239917
66783.87149692413
66771.93301435407
66771.93301435407
66771.93301435407
66754.02529049898
66750.04579630896
66750.04579630896
66750.04579630896
66734.12781954887
66744.07655502392
66718.20984278878
66730.14832535885
66730.14832535885
66736.11756664388
66732.13807245386
66730.14832535885
66730.14832535885
66730.14832535885
66736.11756664388
66734.12781954887
66744.07655502392
66754.02529049898
66754.02529049898
66763.97402597402
66769.94326725905
66791.83048530416
66781.88174982912
66781.88174982912
66787.85099111414
66797.7997265892
66813.71770334928
66819.68694463432
66819.68694463432
66835.60492139439
66839.58441558441
66869.43062200958
66869.43062200958
66859.48188653452
66879.37935748462
66887.33834586466
66885.34859876965
66885.34859876965
66901.26657552973
66905.24606971975
66903.25632262474
66917.18455228981
66917.18455228981
66933.1025290499
66943.05126452495
66953.0
66958.96924128503
66958.96924128503
66978.86671223513
66992.79494190021
66990.80519480519
67010.70266575529
67010.70266575529
67024.63089542037
67032.5898838004
67034.57963089542
67062.43609022556
67062.43609022556
67072.38482570062
67074.37457279563
67082.33356117566
67108.2002734108
67108.2002734108
67112.17976760081
67118.14900888586
67132.07723855092
67134.06698564593
67134.06698564593
67146.005468216
67157.94395078605
67167.89268626111
67167.89268626111
67167.89268626111
67177.84142173616
67187.7901572112
67197.73889268626
67201.71838687628
67201.71838687628
67205.6978810663
67217.63636363637
67221.61585782639
67221.61585782639
67227.58509911141
67227.58509911141
67227.58509911141
67247.48257006152
67247.48257006152
67249.47231715653
67243.5030758715
67239.52358168148
67249.47231715653
67249.47231715653
67247.48257006152
67249.47231715653
67249.47231715653
67253.45181134655
67253.45181134655
67255.44155844155
67257.43130553656
67249.47231715653
67261.41079972658
67261.41079972658
67253.45181134655
67271.35953520164
67241.51332877649
67267.38004101162
67267.38004101162
67273.34928229665
67271.35953520164
67259.42105263157
67263.40054682159
67263.40054682159
67267.38004101162
67285.2877648667
67273.34928229665
67273.34928229665
67273.34928229665
67285.2877648667
67271.35953520164
67269.36978810663
67279.31852358168
67279.31852358168
67279.31852358168
67287.27751196171
67289.26725905674
67303.1954887218
67303.1954887218
67291.25700615175
67299.21599453178
67317.12371838688
67317.12371838688
67307.17498291182
67303.1954887218
67317.12371838688
67333.04169514695
67333.04169514695
67333.04169514695
67329.06220095693
67319.11346548189
67339.010936432
67339.010936432
67348.95967190704
67352.93916609706
67354.92891319207
67366.86739576214
67366.86739576214
67388.75461380725
67380.7956254272
67370.84688995215
67396.71360218729
67396.71360218729
67392.73410799727
67396.71360218729
67410.64183185235
67430.53930280246
67430.53930280246
67438.4982911825
67456.40601503759
67446.45727956254
67472.32399179768
67472.32399179768
67478.2932330827
67496.2009569378
67496.2009569378
67504.15994531784
67504.15994531784
67508.13943950785
67528.03691045796
67545.94463431305
67543.95488721805
67543.95488721805
67563.85235816815
67571.81134654819
67591.7088174983
67597.67805878332
67597.67805878332
67593.6985645933
67615.58578263842
67637.47300068353
67637.47300068353
67649.41148325359
67659.36021872865
67659.36021872865
67675.27819548872
67675.27819548872
67683.23718386877
67691.1961722488
67707.11414900888
67727.01161995898
67727.01161995898
67719.05263157895
67734.97060833903
67742.92959671907
67760.83732057417
67760.83732057417
67764.81681476418
67772.77580314422
67784.71428571429
67792.67327409433
67792.67327409433
67816.55023923445
67826.4989747095
67822.51948051948
67870.27341079972
67870.27341079972
67878.23239917976
67870.27341079972
67884.2016404648
67894.15037593985
67894.15037593985
67906.08885850992
67925.98632946
67935.93506493507
67941.9043062201
67941.9043062201
67949.86329460013
67967.77101845523
67963.79152426521
67985.67874231032
67985.67874231032
67995.62747778537
68007.56596035544
68023.48393711551
68023.48393711551
68031.44292549556
68033.43267259057
68039.4019138756
68069.24812030075
68069.24812030075
68067.25837320574
68059.2993848257
68089.14559125085
68095.11483253588
68095.11483253588
68103.07382091593
68111.03280929597
68120.98154477101
68136.8995215311
68136.8995215311
68136.8995215311
68144.85850991114
68142.86876281613
68156.7969924812
68156.7969924812
68162.76623376623
68174.70471633629
68162.76623376623
68192.61244019138
68192.61244019138
68192.61244019138
68208.53041695147
68210.52016404648
68224.44839371154
68224.44839371154
68230.41763499659
68252.3048530417
68238.37662337662
68254.29460013671
68254.29460013671
68262.25358851675
68282.15105946685
68282.15105946685
68296.07928913191
68296.07928913191
68300.05878332195
68315.97676008202
68321.94600136705
68319.95625427204
68319.95625427204
68325.92549555708
68331.8947368421
68353.78195488722
68353.78195488722
68357.76144907724
68359.75119617225
68365.72043745728
68391.58714969241
68391.58714969241
68369.6999316473
68397.55639097744
68399.54613807246
68405.51537935749
68405.51537935749
68409.4948735475
68437.35133287765
68433.37183868763
68431.38209159262
68431.38209159262
68447.30006835269
68451.27956254272
68457.24880382775
68463.21804511278
68463.21804511278
68469.1872863978
68477.14627477786
68481.12576896788
68475.15652768285
68475.15652768285
68499.03349282297
68503.01298701299
68497.04374572795
68520.92071086807
68520.92071086807
68528.87969924812
68546.78742310322
68536.83868762816
68554.74641148325
68554.74641148325
68558.72590567327
68564.6951469583
68576.63362952837
68582.6028708134
68582.6028708134
68598.52084757348
68592.55160628844
68610.45933014354
68604.49008885851
68604.49008885851
68616.42857142857
68622.3978127136
68640.30553656869
68640.30553656869
68650.25427204375
68652.24401913876
68662.1927546138
68682.09022556391
68682.09022556391
68688.05946684894
68682.09022556391
68694.02870813396
68711.93643198906
68711.93643198906
68709.94668489405
68719.89542036911
68727.85440874915
68733.82365003417
68733.82365003417
68751.73137388927
68753.72112098428
68757.7006151743
68779.58783321941
68779.58783321941
68771.62884483938
68797.49555707451
68789.53656869446
68801.47505126453
68801.47505126453
68793.51606288449
68801.47505126453
68789.53656869446
68805.45454545454
68805.45454545454
68807.44429254955
68795.5058099795
68779.58783321941
68763.66985645932
68763.66985645932
68747.75187969925
68721.88516746412
68699.997949419
68682.09022556391
68682.09022556391
68636.32604237867
68622.3978127136
68564.6951469583
68546.78742310322
68546.78742310322
68501.02323991798
68469.1872863978
68419.44360902255
68419.44360902255
68371.6896787423
68327.91524265209
68294.0895420369
68240.36637047163
68240.36637047163
68186.64319890636
68138.88926862611
68081.18660287082
68035.42241968558
68035.42241968558
67987.66848940533
67931.95557074505
67884.2016404648
67844.40669856459
67844.40669856459
67794.66302118934
67752.87833219412
67681.24743677374
67661.34996582365
67661.34996582365
67613.5960355434
67573.8010936432
67530.02665755297
67496.2009569378
67496.2009569378
67448.44702665755
67424.57006151743
67398.7033492823
67356.91866028708
67356.91866028708
67339.010936432
67305.18523581681
67289.26725905674
67269.36978810663
67269.36978810663
67245.49282296651
67227.58509911141
67211.66712235133
67189.77990430623
67189.77990430623
67195.74914559125
67169.88243335612
67169.88243335612
67153.96445659603
67153.96445659603
67159.93369788106
67132.07723855092
67140.03622693096
67140.03622693096
67134.06698564593
67126.10799726589
67130.08749145591
67128.0977443609
67128.0977443609
67134.06698564593
67130.08749145591
67132.07723855092
67138.04647983595
67138.04647983595
67149.98496240602
67149.98496240602
67151.97470950102
67167.89268626111
67167.89268626111
67173.86192754614
67183.81066302118
67169.88243335612
67209.67737525632
67209.67737525632
67215.64661654136
67217.63636363637
67229.57484620642
67255.44155844155
67255.44155844155
67255.44155844155
67273.34928229665
67273.34928229665
67299.21599453178
67299.21599453178
67319.11346548189
67325.08270676692
67339.010936432
67356.91866028708
67356.91866028708
67380.7956254272
67392.73410799727
67410.64183185235
67416.61107313739
67416.61107313739
67434.51879699247
67446.45727956254
67474.31373889268
67484.26247436773
67484.26247436773
67494.21120984279
67506.14969241284
67512.11893369789
67512.11893369789
67528.03691045796
67553.90362269309
67559.87286397813
67583.74982911824
67583.74982911824
67587.72932330827
67607.62679425837
67613.5960355434
67623.54477101845
67623.54477101845
67639.46274777854
67667.31920710868
67649.41148325359
67669.30895420369
67669.30895420369
67689.2064251538
67677.26794258373
67673.28844839371
67687.21667805879
67687.21667805879
67695.17566643882
67699.15516062884
67693.18591934381
67705.12440191387
67705.12440191387
67705.12440191387
67705.12440191387
67699.15516062884
67703.13465481886
67703.13465481886
67711.09364319891
67717.06288448394
67711.09364319891
67717.06288448394
67717.06288448394
67713.08339029392
67711.09364319891
67713.08339029392
67705.12440191387
67705.12440191387
67701.14490772385
67699.15516062884
67699.15516062884
67699.15516062884
67703.13465481886
67701.14490772385
67687.21667805879
67691.1961722488
67691.1961722488
67689.2064251538
67691.1961722488
67687.21667805879
67693.18591934381
67693.18591934381
67681.24743677374
67677.26794258373
67667.31920710868
67679.25768967874
67679.25768967874
67677.26794258373
67679.25768967874
67679.25768967874
67673.28844839371
67673.28844839371
67679.25768967874
67687.21667805879
67665.32946001367
67689.2064251538
67689.2064251538
67683.23718386877
67681.24743677374
67677.26794258373
67689.2064251538
67689.2064251538
67689.2064251538
67683.23718386877
67681.24743677374
67693.18591934381
67693.18591934381
67703.13465481886
67715.07313738893
67721.04237867396
67723.03212576896
67723.03212576896
67719.05263157895
67732.98086124402
67746.90909090909
67754.86807928912
67754.86807928912
67758.84757347916
67770.78605604921
67780.73479152426
67780.73479152426
67790.68352699932
67794.66302118934
67796.65276828434
67814.56049213944
67814.56049213944
67820.52973342447
67820.52973342447
67832.46821599454
67844.40669856459
67844.40669856459
67850.37593984962
67862.31442241969
67872.26315789473
67872.26315789473
67872.26315789473
67910.06835269993
67910.06835269993
67910.06835269993
67929.96582365004
67929.96582365004
67937.92481203008
67953.84278879015
67949.86329460013
67967.77101845523
67967.77101845523
67981.6992481203
67993.63773069036
68003.5864661654
68013.53520164046
68013.53520164046
68025.47368421052
68037.41216678059
68039.4019138756
68051.34039644565
68051.34039644565
68067.25837320574
68077.20710868078
68091.13533834586
68115.01230348599
68115.01230348599
68109.04306220096
68107.05331510595
68132.92002734108
68132.92002734108
68142.86876281613
68148.83800410116
68158.78673957622
68180.67395762133
68180.67395762133
68182.66370471634
68206.54066985646
68208.53041695147
68208.53041695147
68208.53041695147
68222.45864661653
68234.3971291866
68242.35611756664
68258.27409432673
68258.27409432673
68274.1920710868
68280.16131237184
68290.11004784689
68296.07928913191
68296.07928913191
68302.04853041696
68306.02802460697
68317.96650717703
68337.86397812713
68337.86397812713
68333.88448393712
68359.75119617225
68347.81271360218
68361.74094326726
68361.74094326726
68377.65892002734
68391.58714969241
68401.53588516747
68405.51537935749
68405.51537935749
68411.48462064251
68425.41285030759
68445.31032125768
68439.34107997266
68439.34107997266
68435.36158578264
68445.31032125768
68463.21804511278
68465.20779220779
68465.20779220779
68473.16678058784
68479.13602187287
68497.04374572795
68497.04374572795
68497.04374572795
68510.97197539303
68526.88995215311
68518.93096377306
68518.93096377306
68532.85919343814
68536.83868762816
68536.83868762816
68552.75666438825
68552.75666438825
68556.73615857826
68564.6951469583
68574.64388243336
68568.67464114832
68568.67464114832
68586.58236500341
68604.49008885851
68606.47983595352
68614.43882433356
68614.43882433356
68618.41831852357
68628.36705399863
68612.44907723855
68646.27477785373
68646.27477785373
68660.2030075188
68650.25427204375
68650.25427204375
68672.14149008886
68672.14149008886
68668.16199589883
68676.12098427888
68688.05946684894
68690.04921394394
68690.04921394394
68699.997949419
68711.93643198906
68694.02870813396
68713.92617908407
68713.92617908407
68711.93643198906
68723.87491455913
68723.87491455913
68723.87491455913
68731.83390293916
68735.81339712918
68743.77238550922
68753.72112098428
68753.72112098428
68761.68010936432
68747.75187969925
68767.64935064934
68777.5980861244
68777.5980861244
68785.55707450444
68791.52631578947
68797.49555707451
68817.3930280246
68817.3930280246
68805.45454545454
68821.37252221463
68817.3930280246
68829.33151059467
68829.33151059467
68843.25974025975
68853.20847573479
68847.23923444976
68873.1059466849
68873.1059466849
68883.05468215994
68873.1059466849
68883.05468215994
68889.02392344497
68889.02392344497
68894.99316473001
68904.94190020506
68916.88038277513
68912.90088858509
68912.90088858509
68924.83937115516
68912.90088858509
68928.81886534518
68914.8906356801
68914.8906356801
68910.91114149008
68908.92139439507
68883.05468215994
68863.15721120984
68863.15721120984
68833.31100478469
68833.31100478469
68825.35201640465
68825.35201640465
68777.5980861244
68741.78263841421
68719.89542036911
68682.09022556391
68682.09022556391
68644.2850307587
68598.52084757348
68566.68489405331
68524.9002050581
68524.9002050581
68491.07450444292
68461.22829801777
68385.61790840738
68347.81271360218
68347.81271360218
68294.0895420369
68244.34586466165
68176.69446343131
68134.90977443609
68134.90977443609
68081.18660287082
68033.43267259057
67971.75051264525
67908.07860560493
67908.07860560493
67888.18113465482
67832.46821599454
67766.8065618592
67721.04237867396
67721.04237867396
67683.23718386877
67643.44224196856
67597.67805878332
67555.8933697881
67555.8933697881
67530.02665755297
67478.2932330827
67442.47778537252
67404.67259056732
67404.67259056732
67376.81613123718
67337.02118933697
67309.16473000683
67309.16473000683
67265.39029391661
67259.42105263157
67227.58509911141
67207.68762816131
67207.68762816131
67195.74914559125
67153.96445659603
67146.005468216
67134.06698564593
67134.06698564593
67114.16951469582
67100.24128503076
67084.32330827067
67088.30280246069
67088.30280246069
67080.34381408065
67088.30280246069
67072.38482570062
67056.46684894053
67056.46684894053
67056.46684894053
67060.44634313055
67048.5078605605
67058.45659603554
67058.45659603554
67056.46684894053
67054.47710184552
67044.52836637048
67054.47710184552
67054.47710184552
67064.42583732057
67064.42583732057
67070.39507860561
67082.33356117566
67082.33356117566
67096.26179084074
67092.28229665072
67098.25153793575
67104.22077922078
67104.22077922078
67118.14900888586
67120.13875598086
67132.07723855092
67134.06698564593
67134.06698564593
67146.005468216
67167.89268626111
67146.005468216
67146.005468216
67155.95420369104
67171.87218045113
67173.86192754614
67181.82091592618
67181.82091592618
67191.76965140124
67197.73889268626
67203.70813397129
67229.57484620642
67229.57484620642
67215.64661654136
67237.53383458646
67247.48257006152
67273.34928229665
67273.34928229665
67273.34928229665
67281.30827067669
67303.1954887218
67313.14422419686
67313.14422419686
67317.12371838688
67335.03144224196
67339.010936432
67354.92891319207
67354.92891319207
67362.88790157212
67362.88790157212
67360.8981544771
67384.77511961722
67384.77511961722
67398.7033492823
67410.64183185235
67416.61107313739
67410.64183185235
67410.64183185235
67428.54955570745
67440.48803827752
67438.4982911825
67440.48803827752
67440.48803827752
67438.4982911825
67450.43677375256
67460.3855092276
67460.3855092276
67458.3957621326
67460.3855092276
67460.3855092276
67474.31373889268
67474.31373889268
67462.37525632263
67466.35475051265
67468.34449760766
67464.36500341764
67464.36500341764
67464.36500341764
67480.28298017771
67460.3855092276
67452.42652084757
67452.42652084757
67458.3957621326
67458.3957621326
67472.32399179768
67460.3855092276
67460.3855092276
67472.32399179768
67464.36500341764
67466.35475051265
67466.35475051265
67466.35475051265
67464.36500341764
67476.3034859877
67456.40601503759
67450.43677375256
67450.43677375256
67472.32399179768
67472.32399179768
67476.3034859877
67466.35475051265
67466.35475051265
67468.34449760766
67462.37525632263
67466.35475051265
67470.33424470267
67470.33424470267
67464.36500341764
67464.36500341764
67490.23171565277
67474.31373889268
67474.31373889268
67472.32399179768
67484.26247436773
67498.19070403281
67498.19070403281
67486.25222146275
67494.21120984279
67496.2009569378
67500.18045112782
67500.18045112782
67508.13943950785
67516.0984278879
67514.1086807929
67522.06766917293
67522.06766917293
67524.05741626794
67528.03691045796
67530.02665755297
67530.02665755297
67530.02665755297
67539.97539302803
67553.90362269309
67563.85235816815
67583.74982911824
67583.74982911824
67575.7908407382
67591.7088174983
67585.73957621327
67607.62679425837
67607.62679425837
67611.6062884484
67631.50375939849
67631.50375939849
67643.44224196856
67643.44224196856
67659.36021872865
67673.28844839371
67669.30895420369
67679.25768967874
67679.25768967874
67689.2064251538
67705.12440191387
67725.02187286397
67729.00136705399
67729.00136705399
67732.98086124402
67746.90909090909
67770.78605604921
67764.81681476418
67764.81681476418
67772.77580314422
67794.66302118934
67804.61175666438
67804.61175666438
67802.62200956937
67828.4887218045
67826.4989747095
67840.42720437457
67840.42720437457
67842.41695146958
67864.3041695147
67862.31442241969
67882.2118933698
67882.2118933698
67880.22214627477
67902.10936431988
67906.08885850992
67929.96582365004
67929.96582365004
67933.94531784006
67935.93506493507
67943.8940533151
67963.79152426521
67963.79152426521
67973.74025974025
67991.64798359535
67991.64798359535
68001.5967190704
68001.5967190704
68011.54545454546
68025.47368421052
68029.45317840055
68047.36090225563
68047.36090225563
68043.38140806562
68049.35064935064
68071.23786739576
68097.10457963089
68097.10457963089
68103.07382091593
68109.04306220096
68126.95078605604
68122.97129186602
68122.97129186602
68134.90977443609
68146.84825700615
68156.7969924812
68160.77648667122
68160.77648667122
68182.66370471634
68176.69446343131
68190.62269309637
68190.62269309637
68196.5919343814
68208.53041695147
68214.4996582365
68222.45864661653
68222.45864661653
68218.47915242652
68234.3971291866
68240.36637047163
68244.34586466165
68244.34586466165
68262.25358851675
68264.24333561175
68262.25358851675
68272.20232399179
68272.20232399179
68284.14080656186
68294.0895420369
68282.15105946685
68313.98701298701
68313.98701298701
68313.98701298701
68321.94600136705
68319.95625427204
68343.83321941216
68343.83321941216
68345.82296650717
68355.77170198223
68351.79220779221
68357.76144907724
68357.76144907724
68373.67942583731
68383.62816131237
68395.56664388243
68397.55639097744
68397.55639097744
68395.56664388243
68413.47436773752
68421.43335611756
68425.41285030759
68425.41285030759
68425.41285030759
68431.38209159262
68451.27956254272
68451.27956254272
68465.20779220779
68443.32057416267
68449.28981544772
68465.20779220779
68465.20779220779
68459.23855092276
68465.20779220779
68477.14627477786
68485.1052631579
68485.1052631579
68499.03349282297
68497.04374572795
68475.15652768285
68503.01298701299
68503.01298701299
68514.95146958304
68528.87969924812
68522.9104579631
68530.86944634313
68530.86944634313
68522.9104579631
68550.76691729324
68554.74641148325
68558.72590567327
68558.72590567327
68546.78742310322
68566.68489405331
68552.75666438825
68580.61312371839
68580.61312371839
68588.57211209842
68594.54135338345
68598.52084757348
68616.42857142857
68616.42857142857
68620.40806561858
68620.40806561858
68638.31578947368
68642.2952836637
68642.2952836637
68640.30553656869
68640.30553656869
68660.2030075188
68662.1927546138
68662.1927546138
68666.17224880382
68670.15174299385
68686.06971975393
68686.06971975393
68698.008202324
68690.04921394394
68703.97744360902
68711.93643198906
68711.93643198906
68723.87491455913
68725.86466165414
68719.89542036911
68749.74162679426
68749.74162679426
68753.72112098428
68749.74162679426
68747.75187969925
68775.6083390294
68775.6083390294
68773.61859193438
68779.58783321941
68779.58783321941
68791.52631578947
68791.52631578947
68789.53656869446
68785.55707450444
68771.62884483938
68781.57758031442
68781.57758031442
68773.61859193438
68761.68010936432
68735.81339712918
68721.88516746412
68721.88516746412
68721.88516746412
68676.12098427888
68644.2850307587
68626.37730690363
68626.37730690363
68592.55160628844
68558.72590567327
68522.9104579631
68483.11551606288
68483.11551606288
68439.34107997266
68395.56664388243
68333.88448393712
68296.07928913191
68296.07928913191
68244.34586466165
68202.56117566644
68150.82775119616
68150.82775119616
68091.13533834586
68027.46343130553
67969.76076555024
67914.04784688995
67914.04784688995
67862.31442241969
67796.65276828434
67752.87833219412
67685.22693096378
67685.22693096378
67631.50375939849
67581.76008202323
67516.0984278879
67476.3034859877
67476.3034859877
67430.53930280246
67380.7956254272
67319.11346548189
67291.25700615175
67291.25700615175
67237.53383458646
67189.77990430623
67149.98496240602
67116.15926179085
67116.15926179085
67076.36431989064
67058.45659603554
67010.70266575529
66984.83595352016
66984.83595352016
66956.97949419002
66929.12303485988
66901.26657552973
66881.36910457963
66881.36910457963
66855.5023923445
66855.5023923445
66829.63568010936
66817.6971975393
66817.6971975393
66795.8099794942
66783.87149692413
66791.83048530416
66791.83048530416
66769.94326725905
66756.01503759398
66758.004784689
66758.004784689
66758.004784689
66752.03554340397
66746.06630211894
66742.0868079289
66748.05604921395
66748.05604921395
66736.11756664388
66746.06630211894
66738.10731373889
66756.01503759398
66756.01503759398
66740.0970608339
66765.96377306903
66742.0868079289
66767.95352016404
66767.95352016404
66765.96377306903
66763.97402597402
66765.96377306903
66791.83048530416
66791.83048530416
66789.84073820915
66793.82023239917
66791.83048530416
66789.84073820915
66789.84073820915
66811.72795625427
66799.78947368421
66805.75871496924
66819.68694463432
66819.68694463432
66821.67669172933
66843.56390977443
66847.54340396446
66849.53315105947
66849.53315105947
66859.48188653452
66859.48188653452
66885.34859876965
66887.33834586466
66887.33834586466
66889.32809295967
66903.25632262474
66917.18455228981
66917.18455228981
66909.22556390977
66935.0922761449
66939.07177033492
66939.07177033492
66939.07177033492
66953.0
66964.93848257005
66972.8974709501
66984.83595352016
66984.83595352016
66990.80519480519
66984.83595352016
66998.76418318524
67004.73342447027
67004.73342447027
67018.66165413534
67032.5898838004
67036.56937799042
67042.53861927547
67042.53861927547
67062.43609022556
67052.48735475051
67056.46684894053
67078.35406698564
67078.35406698564
67078.35406698564
67074.37457279563
67074.37457279563
67094.27204374573
67094.27204374573
67086.31305536568
67096.26179084074
67096.26179084074
67108.2002734108
67108.2002734108
67114.16951469582
67118.14900888586
67118.14900888586
67122.12850307587
67122.12850307587
67116.15926179085
67128.0977443609
67136.05673274094
67136.05673274094
67136.05673274094
67126.10799726589
67144.01572112099
67146.005468216
67146.005468216
67144.01572112099
67140.03622693096
67136.05673274094
67140.03622693096
67140.03622693096
67140.03622693096
67130.08749145591
67130.08749145591
67147.995215311
67147.995215311
67136.05673274094
67134.06698564593
67128.0977443609
67155.95420369104
67155.95420369104
67144.01572112099
67144.01572112099
