0.4359707736779858
0.4320642255267494
0.42815044302708477
0.42424389487584835
0.42130674941399276
0.41837683830056543
0.41740020126275634
0.41642356422494725
0.41544692718713816
0.414470290149329
0.4125097817252826
0.4115331446874735
0.40957987061185525
0.40762659653623706
0.40664995949842797
0.40664995949842797
0.40664995949842797
0.40762659653623706
0.40860323357404615
0.40860323357404615
0.4105565076496644
0.4115331446874735
0.4115331446874735
0.4105565076496644
0.40860323357404615
0.40664995949842797
0.40468945107438153
0.40468945107438153
0.4056660881121906
0.40860323357404615
0.4125097817252826
0.4203301123761837
0.4320642255267494
0.4525880720175971
0.47409578989468215
0.49560350777176715
0.5180806283382331
0.5347051610262725
0.5503385879796465
0.5640259752058304
0.5757600883563961
0.5845570560451063
0.5923773866960075
0.5962839348472438
0.5992210803090994
0.6011743543847177
0.6021509914225267
0.6031276284603359
0.6031276284603359
0.6011743543847177
0.598237208922862
0.5933540237338165
0.5855336930829155
0.5777133624320144
0.5718463058567315
0.5620727011302122
0.5474086768662192
0.5337212896400352
0.5210177738000886
0.5092836606495229
0.5024472013848591
0.4975567818473854
0.49560350777176715
0.49462687073395806
0.4936429993477207
0.4936429993477207
0.4936429993477207
0.49168972527210253
0.4887598141586752
0.48680654008305696
0.48386939462120143
0.4809394835077741
0.4780023380459186
0.47507242693249124
0.4711658787812548
0.46822873331939924
0.4633455481303537
0.45845512859287996
0.4535647090554062
0.4486815238663607
0.4437911043288869
0.4389079191398414
0.4349941366401767
0.4310875884889403
0.42619716895146653
0.4232672578380392
0.4203301123761837
0.41837683830056543
0.41642356422494725
0.414470290149329
0.414470290149329
0.4134864187630917
0.4125097817252826
0.4125097817252826
0.4125097817252826
0.4125097817252826
0.4125097817252826
0.4134864187630917
0.41544692718713816
0.41740020126275634
0.4193534753383746
0.4203301123761837
0.42130674941399276
0.42130674941399276
0.4203301123761837
0.4193534753383746
0.41642356422494725
0.414470290149329
0.4134864187630917
0.4134864187630917
0.41642356422494725
0.42130674941399276
0.42815044302708477
0.43694741071579496
0.45063479794197886
0.46822873331939924
0.48680654008305696
0.5053771124982864
0.523947684913516
0.5415416202909363
0.5581589186305476
0.5718463058567315
0.5816199105832508
0.5874869671585337
0.590416878271961
0.590416878271961
0.5914007496581983
0.590416878271961
0.5894402412341518
0.5865103301207246
0.5826037819694881
0.5777133624320144
0.5708696688189224
0.5630493381680214
0.5522990964036929
0.5405649832531272
0.5288381044509897
0.517103991300424
0.5073303865739046
0.4975567818473854
0.48778317712086605
0.479962846469965
0.47409578989468215
0.4701892417434457
0.46822873331939924
0.46725209628159015
0.46627545924378105
0.4643221851681628
0.4604084026684982
0.4565018545172618
0.4525880720175971
0.4477048868285516
0.4437911043288869
0.4389079191398414
0.4330408625645585
0.4301109514511312
0.4271738059892756
0.42522053191365744
0.4222906208002301
0.4193534753383746
0.41740020126275634
0.41544692718713816
0.4134864187630917
0.4125097817252826
0.4115331446874735
0.4115331446874735
0.4115331446874735
0.4125097817252826
0.4134864187630917
0.4134864187630917
0.414470290149329
0.41544692718713816
0.41642356422494725
0.41642356422494725
0.41740020126275634
0.41740020126275634
0.41837683830056543
0.41837683830056543
0.41837683830056543
0.4193534753383746
0.4203301123761837
0.4203301123761837
0.42130674941399276
0.4203301123761837
0.41837683830056543
0.41642356422494725
0.41544692718713816
0.4134864187630917
0.4115331446874735
0.4105565076496644
0.4115331446874735
0.414470290149329
0.4193534753383746
0.4271738059892756
0.4389079191398414
0.4535647090554062
0.4721425158190639
0.4897364511964843
0.5083070236117138
0.523947684913516
0.5366584351018908
0.5483853139040282
0.5591427900167849
0.5679397577054951
0.5737995799323498
0.5777133624320144
0.5796666365076326
0.5796666365076326
0.5786899994698235
0.5767367253942053
0.5737995799323498
0.5698930317811133
0.5640259752058304
0.5552290075171202
0.5444787657527919
0.5327446526022261
0.5210177738000886
0.5092836606495229
0.49951005592300357
0.49168972527210253
0.4858226686968196
0.479962846469965
0.47409578989468215
0.4692053703572084
0.46529882220597196
0.46236891109254463
0.4604084026684982
0.45747849155507087
0.45454858044164353
0.45063479794197886
0.44574437840450515
0.4408611932154596
0.43694741071579496
0.4320642255267494
0.42815044302708477
0.42522053191365744
0.4232672578380392
0.42130674941399276
0.4193534753383746
0.41740020126275634
0.41544692718713816
0.4134864187630917
0.4125097817252826
0.4105565076496644
0.40957987061185525
0.40860323357404615
0.40762659653623706
0.40762659653623706
0.40762659653623706
0.40762659653623706
0.40762659653623706
0.40860323357404615
0.40860323357404615
0.40762659653623706
0.40762659653623706
0.40762659653623706
0.40860323357404615
0.40860323357404615
0.4105565076496644
0.4115331446874735
0.4115331446874735
0.4125097817252826
0.4125097817252826
0.4105565076496644
0.40860323357404615
0.40664995949842797
0.40468945107438153
0.40468945107438153
0.4056660881121906
0.40860323357404615
0.414470290149329
0.42424389487584835
0.43792404775360405
0.4565018545172618
0.47507242693249124
0.4926663623099116
0.5122208061113784
0.5307913785266078
0.5493619509418374
0.5650026122436396
0.5786899994698235
0.5894402412341518
0.598237208922862
0.604104265498145
0.6080180479978096
0.6099713220734279
0.6099713220734279
0.6099713220734279
0.6089946850356187
0.6089946850356187
0.6060575395737632
0.6011743543847177
0.5943306607716257
0.5845570560451063
0.5747834513185871
0.5630493381680214
0.5513224593658839
0.539588346215318
0.5288381044509897
0.5210177738000886
0.5131974431491875
0.5063537495360956
0.5024472013848591
0.4985334188851945
0.49658014480957624
0.49462687073395806
0.49168972527210253
0.4887598141586752
0.4858226686968196
0.4809394835077741
0.47604906397030033
0.4721425158190639
0.46822873331939924
0.46529882220597196
0.46236891109254463
0.4604084026684982
0.45845512859287996
0.4565018545172618
0.4535647090554062
0.44965816090416977
0.44574437840450515
0.44183783025326867
0.43792404775360405
0.4330408625645585
0.42912708006489386
0.42424389487584835
0.41837683830056543
0.414470290149329
0.4115331446874735
0.40957987061185525
0.40860323357404615
0.40957987061185525
0.40957987061185525
0.40957987061185525
0.4105565076496644
0.4105565076496644
0.4105565076496644
0.4105565076496644
0.4105565076496644
0.4105565076496644
0.4105565076496644
0.4115331446874735
0.4105565076496644
0.4105565076496644
0.4105565076496644
0.40957987061185525
0.40957987061185525
0.40957987061185525
0.40957987061185525
0.4105565076496644
0.4125097817252826
0.41642356422494725
0.42522053191365744
0.43792404775360405
0.4555252174794526
0.47604906397030033
0.49658014480957624
0.5180806283382331
0.5376350721396999
0.5552290075171202
0.5698930317811133
0.5806432735454417
0.5865103301207246
0.5923773866960075
0.597260571885053
0.5992210803090994
0.6001977173469085
0.6001977173469085
0.598237208922862
0.5943306607716257
0.5894402412341518
0.5845570560451063
0.5767367253942053
0.566963120667686
0.5562056445549294
0.545455402790601
0.531768015564417
0.517103991300424
0.5034238384226682
0.49168972527210253
0.4819161205455832
0.47604906397030033
0.4721425158190639
0.4701892417434457
0.4692053703572084
0.46725209628159015
0.46627545924378105
0.46529882220597196
0.4633455481303537
0.4613850397063073
0.45943176563068905
0.4555252174794526
0.4525880720175971
0.44965816090416977
0.44574437840450515
0.4408611932154596
0.4349941366401767
0.4301109514511312
0.42522053191365744
0.42130674941399276
0.41740020126275634
0.414470290149329
0.4125097817252826
0.4105565076496644
0.4105565076496644
0.40860323357404615
0.40664995949842797
0.4056660881121906
0.40468945107438153
0.4037128140365724
0.4027361769987633
0.4017595399609542
0.4017595399609542
0.40078290292314506
0.3988296288475269
0.39686912042348044
0.3939392093100531
0.39198593523443487
0.3900326611588167
0.38904878977257934
0.38807215273477025
0.38807215273477025
0.38807215273477025
0.38807215273477025
0.38709551569696116
0.3851422416213429
0.3831889675457247
0.3812284591216783
0.37927518504606006
0.37829854800825097
0.38025182208386915
0.3822123305079156
0.38807215273477025
0.39686912042348044
0.40860323357404615
0.42522053191365744
0.4408611932154596
0.45747849155507087
0.4770257010081094
0.49560350777176715
0.5131974431491875
0.5298147414887988
0.5435021287149827
0.5542523704793112
0.5640259752058304
0.5708696688189224
0.5737995799323498
0.5757600883563961
0.5767367253942053
0.5767367253942053
0.5767367253942053
0.5737995799323498
0.5698930317811133
0.5620727011302122
0.5513224593658839
0.539588346215318
0.5268848303753715
0.5151507172248058
0.5044004754604773
0.49658014480957624
0.4897364511964843
0.4848460316590105
0.479962846469965
0.4770257010081094
0.47507242693249124
0.473119152856873
0.4701892417434457
0.4692053703572084
0.46725209628159015
0.46529882220597196
0.4633455481303537
0.4604084026684982
0.45845512859287996
0.4555252174794526
0.4525880720175971
0.4486815238663607
0.444767741366696
0.4398845561776505
0.4359707736779858
0.4320642255267494
0.4271738059892756
0.4222906208002301
0.41740020126275634
0.414470290149329
0.4105565076496644
0.40762659653623706
0.40664995949842797
0.4056660881121906
0.40468945107438153
0.40468945107438153
0.4037128140365724
0.4017595399609542
0.39980626588533597
0.39980626588533597
0.3988296288475269
0.3988296288475269
0.3988296288475269
0.3988296288475269
0.3988296288475269
0.39980626588533597
0.3978529918097178
0.39589248338567135
0.3939392093100531
0.39198593523443487
0.38904878977257934
0.386118878659152
0.3831889675457247
0.3812284591216783
0.37927518504606006
0.38025182208386915
0.3822123305079156
0.3851422416213429
0.3910092981966258
0.40078290292314506
0.4134864187630917
0.4301109514511312
0.44965816090416977
0.4711658787812548
0.49168972527210253
0.5102675320357603
0.5268848303753715
0.5405649832531272
0.5513224593658839
0.5591427900167849
0.5650026122436396
0.5689163947433042
0.5728229428945406
0.5747834513185871
0.5757600883563961
0.5757600883563961
0.5747834513185871
0.5708696688189224
0.5650026122436396
0.5581589186305476
0.5483853139040282
0.5376350721396999
0.5288381044509897
0.5200411367622795
0.5092836606495229
0.5004866929608127
0.4936429993477207
0.48778317712086605
0.48289275758339234
0.4809394835077741
0.479962846469965
0.47898620943215586
0.47898620943215586
0.4770257010081094
0.47409578989468215
0.4711658787812548
0.46627545924378105
0.4613850397063073
0.4565018545172618
0.451611434979788
0.44672824979074244
0.44183783025326867
0.43694741071579496
0.4330408625645585
0.4301109514511312
0.42619716895146653
0.4232672578380392
0.42130674941399276
0.4193534753383746
0.41642356422494725
0.414470290149329
0.4134864187630917
0.4125097817252826
0.4115331446874735
0.4115331446874735
0.4115331446874735
0.4115331446874735
0.4115331446874735
0.4115331446874735
0.4105565076496644
0.40957987061185525
0.40957987061185525
0.40957987061185525
0.40957987061185525
0.40957987061185525
0.4105565076496644
0.4105565076496644
0.414470290149329
0.4193534753383746
0.42130674941399276
0.4222906208002301
0.4222906208002301
0.4222906208002301
0.4222906208002301
0.4222906208002301
0.4232672578380392
0.42522053191365744
0.4301109514511312
0.4408611932154596
0.4555252174794526
0.47409578989468215
0.49560350777176715
0.5180806283382331
0.539588346215318
0.5581589186305476
0.5728229428945406
0.5855336930829155
0.5962839348472438
0.605080902535954
0.6129012331868552
0.6177916527243289
0.6197449267999471
0.6207215638377562
0.6216982008755654
0.6216982008755654
0.6207215638377562
0.6177916527243289
0.6129012331868552
0.6070414109600005
0.5992210803090994
0.5894402412341518
0.5796666365076326
0.5679397577054951
0.5552290075171202
0.5425254916771737
0.5307913785266078
0.5210177738000886
0.5131974431491875
0.5073303865739046
0.5024472013848591
0.49951005592300357
0.4985334188851945
0.49658014480957624
0.49462687073395806
0.4936429993477207
0.49168972527210253
0.48778317712086605
0.48386939462120143
0.479962846469965
0.47604906397030033
0.4721425158190639
0.46822873331939924
0.4643221851681628
0.45943176563068905
0.4555252174794526
0.451611434979788
0.4477048868285516
0.4437911043288869
0.4408611932154596
0.4359707736779858
0.4310875884889403
0.4271738059892756
0.42424389487584835
0.42130674941399276
0.41837683830056543
0.41740020126275634
0.414470290149329
0.4125097817252826
0.40957987061185525
0.40762659653623706
0.40664995949842797
0.40664995949842797
0.40664995949842797
0.40860323357404615
0.4105565076496644
0.4125097817252826
0.414470290149329
0.41544692718713816
0.41642356422494725
0.41642356422494725
0.41544692718713816
0.414470290149329
0.4134864187630917
0.4115331446874735
0.4105565076496644
0.4105565076496644
0.4115331446874735
0.414470290149329
0.4203301123761837
0.42815044302708477
0.4389079191398414
0.4535647090554062
0.4721425158190639
0.49168972527210253
0.5102675320357603
0.5288381044509897
0.5444787657527919
0.5581589186305476
0.5689163947433042
0.5767367253942053
0.5835804190072973
0.5884636041963428
0.5894402412341518
0.590416878271961
0.590416878271961
0.5894402412341518
0.5865103301207246
0.5826037819694881
0.5767367253942053
0.5698930317811133
0.560119427054594
0.5483853139040282
0.5366584351018908
0.523947684913516
0.5131974431491875
0.5053771124982864
0.4985334188851945
0.4926663623099116
0.48680654008305696
0.48289275758339234
0.4809394835077741
0.479962846469965
0.47898620943215586
0.4780023380459186
0.47409578989468215
0.4701892417434457
0.46627545924378105
0.46236891109254463
0.45747849155507087
0.4525880720175971
0.4486815238663607
0.444767741366696
0.4408611932154596
0.4359707736779858
0.4310875884889403
0.4271738059892756
0.42424389487584835
0.42130674941399276
0.41837683830056543
0.41642356422494725
0.414470290149329
0.4134864187630917
0.4125097817252826
0.4125097817252826
0.4134864187630917
0.4134864187630917
0.414470290149329
0.41642356422494725
0.41837683830056543
0.4203301123761837
0.4222906208002301
0.4222906208002301
0.4232672578380392
0.4232672578380392
0.4232672578380392
0.4232672578380392
0.42424389487584835
0.4232672578380392
0.4222906208002301
0.4203301123761837
0.41740020126275634
0.41544692718713816
0.4125097817252826
0.40957987061185525
0.40860323357404615
0.40957987061185525
0.4105565076496644
0.4134864187630917
0.4193534753383746
0.4271738059892756
0.43694741071579496
0.45063479794197886
0.46725209628159015
0.4858226686968196
0.5034238384226682
0.5200411367622795
0.5337212896400352
0.5435021287149827
0.553275733441502
0.5620727011302122
0.5698930317811133
0.5757600883563961
0.5796666365076326
0.5826037819694881
0.5816199105832508
0.5806432735454417
0.5777133624320144
0.5708696688189224
0.5620727011302122
0.5522990964036929
0.5425254916771737
0.5307913785266078
0.5190644997244704
0.5083070236117138
0.4975567818473854
0.4897364511964843
0.48289275758339234
0.4770257010081094
0.4721425158190639
0.4692053703572084
0.46725209628159015
0.46627545924378105
0.46627545924378105
0.4643221851681628
0.46236891109254463
0.45845512859287996
0.45454858044164353
0.44965816090416977
0.444767741366696
0.4398845561776505
0.4349941366401767
0.4310875884889403
0.4271738059892756
0.42522053191365744
0.4232672578380392
0.4222906208002301
0.4203301123761837
0.41740020126275634
0.41544692718713816
0.414470290149329
0.414470290149329
0.414470290149329
0.414470290149329
0.414470290149329
0.41544692718713816
0.41642356422494725
0.41837683830056543
0.4193534753383746
0.4203301123761837
0.42130674941399276
0.4232672578380392
0.4232672578380392
0.42424389487584835
0.42424389487584835
0.42424389487584835
0.42424389487584835
0.42424389487584835
0.4232672578380392
0.4222906208002301
0.4203301123761837
0.4193534753383746
0.41740020126275634
0.41544692718713816
0.41544692718713816
0.41740020126275634
0.4222906208002301
0.4310875884889403
0.444767741366696
0.4633455481303537
0.4848460316590105
0.5073303865739046
0.5268848303753715
0.5444787657527919
0.5591427900167849
0.5698930317811133
0.5816199105832508
0.5914007496581983
0.5992210803090994
0.605080902535954
0.6080180479978096
0.6099713220734279
0.6109479591112369
0.611924596149046
0.6099713220734279
0.6080180479978096
0.6060575395737632
0.6021509914225267
0.597260571885053
0.590416878271961
0.5806432735454417
0.5689163947433042
0.5571822815927384
0.5444787657527919
0.5307913785266078
0.5190644997244704
0.5092836606495229
0.5014633299986218
0.49462687073395806
0.4887598141586752
0.4848460316590105
0.4809394835077741
0.4780023380459186
0.47507242693249124
0.4721425158190639
0.4692053703572084
0.46725209628159015
0.4633455481303537
0.4604084026684982
0.45747849155507087
0.45454858044164353
0.4525880720175971
0.44965816090416977
0.44672824979074244
0.44183783025326867
0.43694741071579496
0.4330408625645585
0.42815044302708477
0.42424389487584835
0.4203301123761837
0.41642356422494725
0.4134864187630917
0.4115331446874735
0.40957987061185525
0.40860323357404615
0.40762659653623706
0.40762659653623706
0.4056660881121906
0.40468945107438153
0.40468945107438153
0.4037128140365724
0.40468945107438153
0.4056660881121906
0.40762659653623706
0.40860323357404615
0.40762659653623706
0.40762659653623706
0.4056660881121906
0.4037128140365724
0.4027361769987633
0.40078290292314506
0.40078290292314506
0.39980626588533597
0.39980626588533597
0.40078290292314506
0.4037128140365724
0.40860323357404615
0.41642356422494725
0.42619716895146653
0.4408611932154596
0.45943176563068905
0.479962846469965
0.5004866929608127
0.5200411367622795
0.538611709177509
0.5542523704793112
0.5659792492814486
0.5737995799323498
0.5806432735454417
0.5835804190072973
0.5845570560451063
0.5855336930829155
0.5855336930829155
0.5845570560451063
0.5835804190072973
0.5816199105832508
0.5786899994698235
0.5737995799323498
0.5689163947433042
0.560119427054594
0.5503385879796465
0.5366584351018908
0.5229710478757068
0.5102675320357603
0.4975567818473854
0.48680654008305696
0.4780023380459186
0.4711658787812548
0.46627545924378105
0.4633455481303537
0.4604084026684982
0.4565018545172618
0.4535647090554062
0.44965816090416977
0.4477048868285516
0.44574437840450515
0.44183783025326867
0.43792404775360405
0.43401749960236763
0.4310875884889403
0.4271738059892756
0.42424389487584835
0.4222906208002301
0.4193534753383746
0.41544692718713816
0.4125097817252826
0.4105565076496644
0.40860323357404615
0.40664995949842797
0.40468945107438153
0.4017595399609542
0.39980626588533597
0.39686912042348044
0.3939392093100531
0.39198593523443487
0.3900326611588167
0.3900326611588167
0.38904878977257934
0.3910092981966258
0.392962572272244
0.3939392093100531
0.392962572272244
0.392962572272244
0.39198593523443487
0.3900326611588167
0.38904878977257934
0.38807215273477025
0.38709551569696116
0.386118878659152
0.3851422416213429
0.3831889675457247
0.3812284591216783
0.37927518504606006
0.37829854800825097
0.3773219109704418
0.37829854800825097
0.3812284591216783
0.38807215273477025
0.3978529918097178
0.4125097817252826
0.4301109514511312
0.45063479794197886
0.4711658787812548
0.4907130882342934
0.5073303865739046
0.5200411367622795
0.5337212896400352
0.54643203982841
0.5571822815927384
0.5650026122436396
0.5698930317811133
0.5718463058567315
0.5718463058567315
0.5698930317811133
0.5679397577054951
0.5650026122436396
0.5610960640924031
0.5562056445549294
0.5503385879796465
0.5435021287149827
0.5347051610262725
0.523947684913516
0.5122208061113784
0.49951005592300357
0.4887598141586752
0.47898620943215586
0.4711658787812548
0.46529882220597196
0.4604084026684982
0.45845512859287996
0.45747849155507087
0.4565018545172618
0.4565018545172618
0.4565018545172618
0.4565018545172618
0.45454858044164353
0.4525880720175971
0.44965816090416977
0.44672824979074244
0.44183783025326867
0.43694741071579496
0.4320642255267494
0.4271738059892756
0.4232672578380392
0.4193534753383746
0.41544692718713816
0.4115331446874735
0.40860323357404615
0.40762659653623706
0.40664995949842797
0.40664995949842797
0.40762659653623706
0.40762659653623706
0.40762659653623706
0.40860323357404615
0.40762659653623706
0.40762659653623706
0.40664995949842797
0.4056660881121906
0.4056660881121906
0.40468945107438153
0.40468945107438153
0.4056660881121906
0.4056660881121906
0.4037128140365724
0.4017595399609542
0.39980626588533597
0.3978529918097178
0.39589248338567135
0.3939392093100531
0.3910092981966258
0.3900326611588167
0.38904878977257934
0.38904878977257934
0.3900326611588167
0.39198593523443487
0.39589248338567135
0.4027361769987633
0.4125097817252826
0.4232672578380392
0.4359707736779858
0.4525880720175971
0.4711658787812548
0.4887598141586752
0.5073303865739046
0.524924321951325
0.539588346215318
0.5513224593658839
0.560119427054594
0.5650026122436396
0.5659792492814486
0.5659792492814486
0.5640259752058304
0.560119427054594
0.5552290075171202
0.5503385879796465
0.5435021287149827
0.5347051610262725
0.523947684913516
0.5122208061113784
0.5014633299986218
0.4926663623099116
0.4858226686968196
0.479962846469965
0.47507242693249124
0.4721425158190639
0.4701892417434457
0.4701892417434457
0.4692053703572084
0.46725209628159015
0.46529882220597196
0.46236891109254463
0.45943176563068905
0.4555252174794526
0.451611434979788
0.4486815238663607
0.44574437840450515
0.4428144672910778
0.4408611932154596
0.4389079191398414
0.43694741071579496
0.43401749960236763
0.4320642255267494
0.42912708006489386
0.4271738059892756
0.42424389487584835
0.4222906208002301
0.42130674941399276
0.4193534753383746
0.41837683830056543
0.41740020126275634
0.41544692718713816
0.4134864187630917
0.4115331446874735
0.4105565076496644
0.4105565076496644
0.4105565076496644
0.4115331446874735
0.4115331446874735
0.4115331446874735
0.4105565076496644
0.4105565076496644
0.4105565076496644
0.4125097817252826
0.414470290149329
0.41642356422494725
0.41837683830056543
0.41837683830056543
0.41837683830056543
0.41837683830056543
0.41837683830056543
0.4193534753383746
0.4193534753383746
0.4203301123761837
0.4222906208002301
0.42619716895146653
0.4359707736779858
0.45063479794197886
0.4692053703572084
0.4887598141586752
0.5102675320357603
0.531768015564417
0.5522990964036929
0.5689163947433042
0.5826037819694881
0.5923773866960075
0.598237208922862
0.6021509914225267
0.604104265498145
0.605080902535954
0.6060575395737632
0.6060575395737632
0.6060575395737632
0.604104265498145
0.6001977173469085
0.5962839348472438
0.590416878271961
0.5835804190072973
0.5747834513185871
0.566963120667686
0.5581589186305476
0.5474086768662192
0.5366584351018908
0.5268848303753715
0.5180806283382331
0.5102675320357603
0.5034238384226682
0.4975567818473854
0.49462687073395806
0.49168972527210253
0.48778317712086605
0.4848460316590105
0.4819161205455832
0.4780023380459186
0.47409578989468215
0.4701892417434457
0.46627545924378105
0.4633455481303537
0.45943176563068905
0.4555252174794526
0.451611434979788
0.4477048868285516
0.4437911043288869
0.4398845561776505
0.43694741071579496
0.4330408625645585
0.42912708006489386
0.42522053191365744
0.4222906208002301
0.4203301123761837
0.4193534753383746
0.41740020126275634
0.41642356422494725
0.41544692718713816
0.41544692718713816
0.41544692718713816
0.41544692718713816
0.41740020126275634
0.41837683830056543
0.41837683830056543
0.41837683830056543
0.41740020126275634
0.41740020126275634
0.41740020126275634
0.41837683830056543
0.41837683830056543
0.41740020126275634
0.41642356422494725
0.414470290149329
0.4134864187630917
0.4125097817252826
0.4115331446874735
0.4125097817252826
0.414470290149329
0.41740020126275634
0.4222906208002301
0.4310875884889403
0.4437911043288869
0.4604084026684982
0.4780023380459186
0.49658014480957624
0.5112441690735693
0.524924321951325
0.5376350721396999
0.5503385879796465
0.560119427054594
0.566963120667686
0.5718463058567315
0.5757600883563961
0.5777133624320144
0.5786899994698235
0.5786899994698235
0.5786899994698235
0.5767367253942053
0.5737995799323498
0.5698930317811133
0.5640259752058304
0.5571822815927384
0.5483853139040282
0.5376350721396999
0.5259009589891341
0.5141740801869966
0.5034238384226682
0.49462687073395806
0.48778317712086605
0.48289275758339234
0.479962846469965
0.4770257010081094
0.47507242693249124
0.473119152856873
0.4711658787812548
0.46725209628159015
0.4633455481303537
0.45845512859287996
0.4535647090554062
0.4486815238663607
0.4437911043288869
0.4389079191398414
0.43401749960236763
0.4301109514511312
0.42619716895146653
0.4222906208002301
0.4193534753383746
0.41740020126275634
0.41544692718713816
0.4134864187630917
0.4115331446874735
0.40860323357404615
0.40664995949842797
0.4037128140365724
0.4017595399609542
0.39980626588533597
0.3988296288475269
0.3988296288475269
0.39980626588533597
0.4017595399609542
0.4037128140365724
0.40468945107438153
0.4037128140365724
0.4037128140365724
0.4027361769987633
0.4027361769987633
0.4017595399609542
0.40078290292314506
0.40078290292314506
0.4017595399609542
0.40078290292314506
0.39980626588533597
0.3978529918097178
0.39589248338567135
0.3939392093100531
0.39198593523443487
0.39198593523443487
0.392962572272244
0.39589248338567135
0.4027361769987633
0.4105565076496644
0.4203301123761837
0.4330408625645585
0.44965816090416977
0.46822873331939924
0.48680654008305696
0.5044004754604773
0.5200411367622795
0.5337212896400352
0.545455402790601
0.5542523704793112
0.5620727011302122
0.566963120667686
0.5698930317811133
0.5708696688189224
0.5718463058567315
0.5718463058567315
0.5698930317811133
0.566963120667686
0.5610960640924031
0.5542523704793112
0.5435021287149827
0.531768015564417
0.5200411367622795
0.5073303865739046
0.4985334188851945
0.4926663623099116
0.48680654008305696
0.4819161205455832
0.4780023380459186
0.47604906397030033
0.47507242693249124
0.473119152856873
0.4701892417434457
0.46822873331939924
0.4643221851681628
0.4604084026684982
0.4565018545172618
0.4525880720175971
0.4486815238663607
0.4437911043288869
0.4398845561776505
0.4349941366401767
0.4301109514511312
0.42619716895146653
0.4222906208002301
0.4193534753383746
0.41642356422494725
0.414470290149329
0.4115331446874735
0.40957987061185525
0.40860323357404615
0.40664995949842797
0.4037128140365724
0.4027361769987633
0.4017595399609542
0.40078290292314506
0.40078290292314506
0.40078290292314506
0.4017595399609542
0.40078290292314506
0.40078290292314506
0.40078290292314506
0.39980626588533597
0.3988296288475269
0.3978529918097178
0.3978529918097178
0.39686912042348044
0.39686912042348044
0.39686912042348044
0.39589248338567135
0.3949158463478622
0.3939392093100531
0.392962572272244
0.39198593523443487
0.392962572272244
0.39589248338567135
0.40078290292314506
0.40957987061185525
0.4222906208002301
0.4389079191398414
0.45943176563068905
0.4819161205455832
0.5034238384226682
0.524924321951325
0.5435021287149827
0.5591427900167849
0.5689163947433042
0.5757600883563961
0.5806432735454417
0.5835804190072973
0.5855336930829155
0.5865103301207246
0.5855336930829155
0.5835804190072973
0.5816199105832508
0.5786899994698235
0.5757600883563961
0.5718463058567315
0.5659792492814486
0.560119427054594
0.553275733441502
0.5435021287149827
0.531768015564417
0.5200411367622795
0.5102675320357603
0.5024472013848591
0.49560350777176715
0.49168972527210253
0.4897364511964843
0.48680654008305696
0.4848460316590105
0.48386939462120143
0.4819161205455832
0.4809394835077741
0.4780023380459186
0.47409578989468215
0.4711658787812548
0.46725209628159015
0.4633455481303537
0.4604084026684982
0.4565018545172618
0.451611434979788
0.4477048868285516
0.4428144672910778
0.43792404775360405
0.43401749960236763
0.4301109514511312
0.42522053191365744
0.4232672578380392
0.42130674941399276
0.42130674941399276
0.4203301123761837
0.4203301123761837
0.4193534753383746
0.41837683830056543
0.41837683830056543
0.41837683830056543
0.41837683830056543
0.41837683830056543
0.4193534753383746
0.4193534753383746
0.4193534753383746
0.4193534753383746
0.4193534753383746
0.41837683830056543
0.41740020126275634
0.41642356422494725
0.414470290149329
0.4134864187630917
0.4115331446874735
0.4115331446874735
0.4105565076496644
0.4115331446874735
0.4134864187630917
0.41740020126275634
0.42424389487584835
0.43401749960236763
0.4477048868285516
0.46627545924378105
0.48778317712086605
0.5092836606495229
0.5278614674131806
0.5425254916771737
0.5571822815927384
0.5698930317811133
0.5796666365076326
0.5884636041963428
0.5953072978094348
0.6001977173469085
0.6021509914225267
0.6031276284603359
0.604104265498145
0.604104265498145
0.6031276284603359
0.6011743543847177
0.598237208922862
0.5933540237338165
0.5865103301207246
0.5767367253942053
0.5659792492814486
0.5552290075171202
0.5425254916771737
0.5307913785266078
0.5200411367622795
0.5102675320357603
0.5034238384226682
0.49951005592300357
0.49560350777176715
0.4926663623099116
0.4897364511964843
0.48680654008305696
0.48386939462120143
0.4809394835077741
0.47898620943215586
0.47507242693249124
0.4721425158190639
0.4692053703572084
0.46529882220597196
0.4613850397063073
0.45845512859287996
0.4555252174794526
0.451611434979788
0.4486815238663607
0.444767741366696
0.4398845561776505
0.4349941366401767
0.4301109514511312
0.42619716895146653
0.4222906208002301
0.4193534753383746
0.41740020126275634
0.41740020126275634
0.41837683830056543
0.4193534753383746
0.4193534753383746
0.4203301123761837
0.4193534753383746
0.41837683830056543
0.41642356422494725
0.4134864187630917
0.4115331446874735
0.40957987061185525
0.40664995949842797
0.40468945107438153
0.4037128140365724
0.4037128140365724
0.4027361769987633
0.4027361769987633
0.4027361769987633
0.4027361769987633
0.4017595399609542
0.40078290292314506
0.4017595399609542
0.4027361769987633
0.40664995949842797
0.4134864187630917
0.42130674941399276
0.4320642255267494
0.44672824979074244
0.46529882220597196
0.4858226686968196
0.5053771124982864
0.524924321951325
0.5415416202909363
0.5552290075171202
0.5659792492814486
0.5728229428945406
0.5757600883563961
0.5767367253942053
0.5767367253942053
0.5767367253942053
0.5767367253942053
0.5767367253942053
0.5767367253942053
0.5747834513185871
0.5718463058567315
0.5650026122436396
0.5552290075171202
0.5435021287149827
0.5307913785266078
0.517103991300424
0.5063537495360956
0.49658014480957624
0.48680654008305696
0.4780023380459186
0.4721425158190639
0.46822873331939924
0.46627545924378105
0.4633455481303537
0.4613850397063073
0.45943176563068905
0.4565018545172618
0.4535647090554062
0.44965816090416977
0.44574437840450515
0.44183783025326867
0.43792404775360405
0.43401749960236763
0.4301109514511312
0.42619716895146653
0.4232672578380392
0.4193534753383746
0.41740020126275634
0.414470290149329
0.4115331446874735
0.40957987061185525
0.40762659653623706
0.4056660881121906
0.40468945107438153
0.4037128140365724
0.4037128140365724
0.4027361769987633
0.4027361769987633
0.4027361769987633
0.4027361769987633
0.4017595399609542
0.40078290292314506
0.39980626588533597
0.3988296288475269
0.3988296288475269
0.40078290292314506
0.4027361769987633
0.40468945107438153
0.4056660881121906
0.40664995949842797
0.40664995949842797
0.4056660881121906
0.4037128140365724
0.4017595399609542
0.3988296288475269
0.39686912042348044
0.39589248338567135
0.39589248338567135
0.3978529918097178
0.40078290292314506
0.4056660881121906
0.414470290149329
0.4271738059892756
0.4437911043288869
0.4643221851681628
0.48680654008305696
0.5102675320357603
0.5337212896400352
0.553275733441502
0.5689163947433042
0.5826037819694881
0.5933540237338165
0.6001977173469085
0.605080902535954
0.6070414109600005
0.6080180479978096
0.6060575395737632
0.6021509914225267
0.597260571885053
0.590416878271961
0.5826037819694881
0.5747834513185871
0.5659792492814486
0.5552290075171202
0.5444787657527919
0.5337212896400352
0.524924321951325
0.517103991300424
0.5092836606495229
0.5044004754604773
0.5024472013848591
0.5014633299986218
0.5004866929608127
0.5004866929608127
0.49951005592300357
0.49951005592300357
0.49951005592300357
0.49951005592300357
0.49951005592300357
0.49951005592300357
0.49951005592300357
0.49951005592300357
0.49951005592300357
0.49951005592300357
0.49951005592300357
0.49951005592300357
0.49951005592300357
0.4975567818473854
0.49462687073395806
0.4907130882342934
0.48680654008305696
0.4819161205455832
0.4780023380459186
0.47409578989468215
0.4711658787812548
0.46725209628159015
0.4633455481303537
0.45845512859287996
0.4555252174794526
0.4535647090554062
0.4525880720175971
0.451611434979788
0.45063479794197886
0.44965816090416977
0.44672824979074244
0.4428144672910778
0.4398845561776505
0.4349941366401767
0.4310875884889403
0.42619716895146653
0.4232672578380392
0.42130674941399276
0.4193534753383746
0.41740020126275634
0.414470290149329
0.4125097817252826
0.40957987061185525
0.40860323357404615
0.40860323357404615
0.4115331446874735
0.41544692718713816
0.4222906208002301
0.4330408625645585
0.4437911043288869
0.4565018545172618
0.473119152856873
0.4897364511964843
0.5044004754604773
0.5180806283382331
0.5298147414887988
0.538611709177509
0.545455402790601
0.5503385879796465
0.5522990964036929
0.5522990964036929
0.5503385879796465
0.5483853139040282
0.5435021287149827
0.5376350721396999
0.5298147414887988
0.5190644997244704
0.5073303865739046
0.49462687073395806
0.4809394835077741
0.46725209628159015
0.4555252174794526
0.444767741366696
0.4349941366401767
0.42815044302708477
0.42424389487584835
0.4203301123761837
0.41740020126275634
0.41544692718713816
0.4125097817252826
0.4105565076496644
0.40957987061185525
0.40860323357404615
0.40860323357404615
0.40860323357404615
0.40860323357404615
0.40762659653623706
0.40664995949842797
0.4056660881121906
0.4037128140365724
0.4017595399609542
0.39980626588533597
0.3988296288475269
0.39686912042348044
0.3939392093100531
0.39198593523443487
0.38904878977257934
0.38709551569696116
0.3841656045835338
0.3831889675457247
0.3831889675457247
0.3841656045835338
0.3841656045835338
0.3851422416213429
0.3851422416213429
0.386118878659152
0.386118878659152
0.38709551569696116
0.38709551569696116
0.38807215273477025
0.38807215273477025
0.38807215273477025
0.38904878977257934
0.3900326611588167
0.3900326611588167
0.3900326611588167
0.3900326611588167
0.38807215273477025
0.386118878659152
0.3841656045835338
0.3841656045835338
0.3851422416213429
0.38807215273477025
0.392962572272244
0.39980626588533597
0.40957987061185525
0.42424389487584835
0.4428144672910778
0.46529882220597196
0.48778317712086605
0.5112441690735693
0.5337212896400352
0.553275733441502
0.5698930317811133
0.5826037819694881
0.5923773866960075
0.598237208922862
0.6011743543847177
0.6031276284603359
0.6031276284603359
0.604104265498145
0.604104265498145
0.6031276284603359
0.6001977173469085
0.5953072978094348
0.5914007496581983
0.5855336930829155
0.5786899994698235
0.5708696688189224
0.5630493381680214
0.553275733441502
0.5425254916771737
0.5307913785266078
0.5180806283382331
0.5073303865739046
0.4985334188851945
0.49168972527210253
0.4887598141586752
0.48680654008305696
0.4858226686968196
0.48386939462120143
0.4809394835077741
0.4780023380459186
0.473119152856873
0.4692053703572084
0.4643221851681628
0.45943176563068905
0.4555252174794526
0.4525880720175971
0.44965816090416977
0.44574437840450515
0.44183783025326867
0.43792404775360405
0.4330408625645585
0.42912708006489386
0.42522053191365744
0.4222906208002301
0.4203301123761837
0.4193534753383746
0.41837683830056543
0.41740020126275634
0.41642356422494725
0.41642356422494725
0.41642356422494725
0.41642356422494725
0.41642356422494725
0.41642356422494725
0.41740020126275634
0.41642356422494725
0.41642356422494725
0.41544692718713816
0.414470290149329
0.414470290149329
0.4134864187630917
0.4134864187630917
0.4134864187630917
0.4134864187630917
0.4125097817252826
0.4115331446874735
0.40957987061185525
0.40860323357404615
0.40957987061185525
0.4125097817252826
0.4193534753383746
0.4271738059892756
0.43792404775360405
0.451611434979788
0.4701892417434457
0.4907130882342934
0.5112441690735693
0.531768015564417
0.5483853139040282
0.5610960640924031
0.5728229428945406
0.5835804190072973
0.5914007496581983
0.598237208922862
0.6031276284603359
0.6080180479978096
0.6099713220734279
0.6109479591112369
0.6099713220734279
0.6070414109600005
0.6031276284603359
0.5992210803090994
0.5933540237338165
0.5865103301207246
0.5786899994698235
0.5708696688189224
0.5610960640924031
0.5503385879796465
0.5405649832531272
0.5307913785266078
0.5219944108378977
0.5141740801869966
0.5092836606495229
0.5053771124982864
0.5034238384226682
0.5034238384226682
0.5024472013848591
0.49951005592300357
0.49560350777176715
0.49168972527210253
0.48680654008305696
0.48289275758339234
0.4780023380459186
0.473119152856873
0.4692053703572084
0.46529882220597196
0.46236891109254463
0.45943176563068905
0.4565018545172618
0.4525880720175971
0.4486815238663607
0.444767741366696
0.4408611932154596
0.4359707736779858
0.4320642255267494
0.42912708006489386
0.42619716895146653
0.42424389487584835
0.4232672578380392
0.4232672578380392
0.4232672578380392
0.4232672578380392
0.42424389487584835
0.42424389487584835
0.42424389487584835
0.42424389487584835
0.4232672578380392
0.4222906208002301
0.42130674941399276
0.42130674941399276
0.42130674941399276
0.4222906208002301
0.4232672578380392
0.42424389487584835
0.42424389487584835
0.4222906208002301
0.42130674941399276
0.4203301123761837
0.4203301123761837
0.4222906208002301
0.42424389487584835
0.42912708006489386
0.4359707736779858
0.44574437840450515
0.4565018545172618
0.473119152856873
0.4907130882342934
0.5102675320357603
0.5288381044509897
0.545455402790601
0.560119427054594
0.5718463058567315
0.5796666365076326
0.5855336930829155
0.5894402412341518
0.5923773866960075
0.5923773866960075
0.5923773866960075
0.5923773866960075
0.5914007496581983
0.5884636041963428
0.5845570560451063
0.5786899994698235
0.5718463058567315
0.5620727011302122
0.5513224593658839
0.539588346215318
0.5278614674131806
0.517103991300424
0.5083070236117138
0.49951005592300357
0.4926663623099116
0.48680654008305696
0.4809394835077741
0.47604906397030033
0.473119152856873
0.4721425158190639
0.4701892417434457
0.46725209628159015
0.4643221851681628
0.46236891109254463
0.45943176563068905
0.4555252174794526
0.4525880720175971
0.4486815238663607
0.444767741366696
0.4408611932154596
0.4359707736779858
0.4320642255267494
0.42912708006489386
0.42619716895146653
0.42424389487584835
0.4222906208002301
0.4222906208002301
0.42130674941399276
0.4203301123761837
0.41837683830056543
0.41544692718713816
0.4134864187630917
0.4125097817252826
0.4115331446874735
0.4115331446874735
0.4125097817252826
0.4125097817252826
0.4115331446874735
0.4105565076496644
0.40957987061185525
0.40860323357404615
0.40664995949842797
0.4056660881121906
0.40468945107438153
0.40468945107438153
0.4027361769987633
0.40078290292314506
0.3988296288475269
0.39686912042348044
0.3939392093100531
0.39198593523443487
0.3900326611588167
0.38904878977257934
0.38904878977257934
0.39198593523443487
0.39686912042348044
0.4056660881121906
0.41544692718713816
0.42815044302708477
0.4428144672910778
0.4604084026684982
0.4780023380459186
0.49560350777176715
0.5102675320357603
0.5229710478757068
0.5347051610262725
0.5444787657527919
0.5522990964036929
0.5581589186305476
0.5610960640924031
0.5630493381680214
0.5630493381680214
0.5630493381680214
0.5610960640924031
0.5581589186305476
0.5522990964036929
0.5444787657527919
0.5366584351018908
0.524924321951325
0.5131974431491875
0.5004866929608127
0.4897364511964843
0.479962846469965
0.473119152856873
0.46725209628159015
0.4643221851681628
0.46236891109254463
0.4613850397063073
0.45943176563068905
0.4565018545172618
0.45454858044164353
0.451611434979788
0.4477048868285516
0.4437911043288869
0.4389079191398414
0.4349941366401767
0.4310875884889403
0.42912708006489386
0.42619716895146653
0.4232672578380392
0.42130674941399276
0.4193534753383746
0.41740020126275634
0.41544692718713816
0.4134864187630917
0.4115331446874735
0.40860323357404615
0.40664995949842797
0.4037128140365724
0.4017595399609542
0.40078290292314506
0.3988296288475269
0.3988296288475269
0.3978529918097178
0.3978529918097178
0.39686912042348044
0.39589248338567135
0.3939392093100531
0.39198593523443487
0.3900326611588167
0.38904878977257934
0.38807215273477025
0.38807215273477025
0.38709551569696116
0.386118878659152
0.3841656045835338
0.3822123305079156
0.3812284591216783
0.37829854800825097
0.37536863689482364
0.3724314914329681
0.37047821735734987
0.36852494328173163
0.37047821735734987
0.3743919998570145
0.3822123305079156
0.3939392093100531
0.40957987061185525
0.42424389487584835
0.4389079191398414
0.4555252174794526
0.47409578989468215
0.49168972527210253
0.5073303865739046
0.5210177738000886
0.5337212896400352
0.545455402790601
0.5542523704793112
0.5610960640924031
0.5650026122436396
0.5659792492814486
0.5650026122436396
0.5610960640924031
0.5562056445549294
0.5513224593658839
0.5444787657527919
0.5376350721396999
0.5288381044509897
0.5190644997244704
0.5102675320357603
0.5024472013848591
0.49560350777176715
0.4897364511964843
0.4848460316590105
0.4809394835077741
0.4780023380459186
0.47604906397030033
0.473119152856873
0.4721425158190639
0.4701892417434457
0.46725209628159015
0.46529882220597196
0.4633455481303537
0.4604084026684982
0.45845512859287996
0.4565018545172618
0.45454858044164353
0.451611434979788
0.44965816090416977
0.4486815238663607
0.4477048868285516
0.44672824979074244
0.444767741366696
0.4428144672910778
0.4408611932154596
0.4389079191398414
0.43694741071579496
0.4349941366401767
0.4330408625645585
0.4320642255267494
0.4301109514511312
0.42912708006489386
0.42815044302708477
0.42815044302708477
0.42815044302708477
0.42815044302708477
0.42815044302708477
0.42912708006489386
0.42912708006489386
0.42912708006489386
0.42815044302708477
0.42815044302708477
0.42815044302708477
0.42815044302708477
0.42815044302708477
0.42815044302708477
0.42815044302708477
0.4271738059892756
0.42522053191365744
0.42424389487584835
0.42424389487584835
0.42522053191365744
0.42815044302708477
0.4320642255267494
0.4389079191398414
0.4486815238663607
0.46236891109254463
0.47898620943215586
0.4985334188851945
0.517103991300424
0.5356817980640817
0.5522990964036929
0.5650026122436396
0.5757600883563961
0.5835804190072973
0.590416878271961
0.5933540237338165
0.5953072978094348
0.5953072978094348
0.5962839348472438
0.5962839348472438
0.5953072978094348
0.5933540237338165
0.590416878271961
0.5845570560451063
0.5786899994698235
0.5708696688189224
0.5610960640924031
0.5522990964036929
0.5435021287149827
0.5337212896400352
0.524924321951325
0.5180806283382331
0.5131974431491875
0.5083070236117138
0.5034238384226682
0.5004866929608127
0.49658014480957624
0.4926663623099116
0.4887598141586752
0.4858226686968196
0.48289275758339234
0.479962846469965
0.47604906397030033
0.4721425158190639
0.46822873331939924
0.46529882220597196
0.4613850397063073
0.45845512859287996
0.45454858044164353
0.451611434979788
0.4486815238663607
0.44574437840450515
0.444767741366696
0.4428144672910778
0.4408611932154596
0.4398845561776505
0.4389079191398414
0.43792404775360405
0.4359707736779858
0.43401749960236763
0.4330408625645585
0.4320642255267494
0.4310875884889403
0.4310875884889403
0.4310875884889403
0.4310875884889403
0.4310875884889403
0.4310875884889403
0.4310875884889403
0.4301109514511312
0.4301109514511312
0.42912708006489386
0.42815044302708477
0.4271738059892756
0.42522053191365744
0.4232672578380392
0.42130674941399276
0.4203301123761837
0.41837683830056543
0.41740020126275634
0.41544692718713816
0.414470290149329
0.41544692718713816
0.42130674941399276
0.4301109514511312
0.4428144672910778
0.45845512859287996
0.4770257010081094
0.4975567818473854
0.5141740801869966
0.5288381044509897
0.5425254916771737
0.5552290075171202
0.5650026122436396
0.5728229428945406
0.5767367253942053
0.5786899994698235
0.5796666365076326
0.5806432735454417
0.5806432735454417
0.5806432735454417
0.5786899994698235
0.5777133624320144
0.5737995799323498
0.5698930317811133
0.5630493381680214
0.5542523704793112
0.5435021287149827
0.5307913785266078
0.5180806283382331
0.5063537495360956
0.49560350777176715
0.48778317712086605
0.4819161205455832
0.479962846469965
0.4780023380459186
0.4780023380459186
0.4770257010081094
0.47604906397030033
0.473119152856873
0.4692053703572084
0.46529882220597196
0.4613850397063073
0.45747849155507087
0.4525880720175971
0.44965816090416977
0.44672824979074244
0.444767741366696
0.4428144672910778
0.4408611932154596
0.4389079191398414
0.43694741071579496
0.4349941366401767
0.4330408625645585
0.4301109514511312
0.42815044302708477
0.42619716895146653
0.42424389487584835
0.42130674941399276
0.4203301123761837
0.4193534753383746
0.41837683830056543
0.41740020126275634
0.41740020126275634
0.41642356422494725
0.41544692718713816
0.414470290149329
0.4134864187630917
0.4134864187630917
0.414470290149329
0.414470290149329
0.414470290149329
0.414470290149329
0.414470290149329
0.4134864187630917
0.4125097817252826
0.4105565076496644
0.40860323357404615
0.40762659653623706
0.4056660881121906
0.40468945107438153
0.4056660881121906
0.40860323357404615
0.4134864187630917
0.4203301123761837
0.42815044302708477
0.4408611932154596
0.4565018545172618
0.47409578989468215
0.4926663623099116
0.5102675320357603
0.5268848303753715
0.5415416202909363
0.553275733441502
0.5630493381680214
0.5708696688189224
0.5747834513185871
0.5777133624320144
0.5786899994698235
0.5786899994698235
0.5767367253942053
0.5728229428945406
0.566963120667686
0.5581589186305476
0.5483853139040282
0.5376350721396999
0.5268848303753715
0.517103991300424
0.5073303865739046
0.49951005592300357
0.4936429993477207
0.4887598141586752
0.48386939462120143
0.4780023380459186
0.4701892417434457
0.46529882220597196
0.4633455481303537
0.4604084026684982
0.45747849155507087
0.4535647090554062
0.4486815238663607
0.4437911043288869
0.4389079191398414
0.4349941366401767
0.4320642255267494
0.42912708006489386
0.42619716895146653
0.4232672578380392
0.4203301123761837
0.41837683830056543
0.41544692718713816
0.414470290149329
0.4115331446874735
0.40957987061185525
0.40762659653623706
0.4056660881121906
0.4037128140365724
0.40078290292314506
0.3978529918097178
0.39589248338567135
0.392962572272244
0.3910092981966258
0.3900326611588167
0.38904878977257934
0.38904878977257934
0.38904878977257934
0.38904878977257934
0.38904878977257934
0.38904878977257934
0.38807215273477025
0.38807215273477025
0.38709551569696116
0.38709551569696116
0.38709551569696116
0.38709551569696116
0.38807215273477025
0.38807215273477025
0.38904878977257934
0.3910092981966258
0.392962572272244
0.39686912042348044
0.4027361769987633
0.4134864187630917
0.42912708006489386
0.4486815238663607
0.4711658787812548
0.49560350777176715
0.5210177738000886
0.5444787657527919
0.5679397577054951
0.5865103301207246
0.6011743543847177
0.6099713220734279
0.6158383786487107
0.618768289762138
0.6207215638377562
0.6216982008755654
0.6207215638377562
0.6168150156865198
0.6129012331868552
0.6080180479978096
0.604104265498145
0.598237208922862
0.5914007496581983
0.5835804190072973
0.5747834513185871
0.5620727011302122
0.5483853139040282
0.5347051610262725
0.523947684913516
0.5141740801869966
0.5073303865739046
0.5034238384226682
0.5014633299986218
0.4985334188851945
0.49462687073395806
0.4907130882342934
0.48680654008305696
0.4819161205455832
0.4780023380459186
0.47409578989468215
0.4701892417434457
0.46627545924378105
0.46236891109254463
0.45747849155507087
0.451611434979788
0.4477048868285516
0.4428144672910778
0.4389079191398414
0.4349941366401767
0.4330408625645585
0.4310875884889403
0.42815044302708477
0.42619716895146653
0.4232672578380392
0.4203301123761837
0.41837683830056543
0.41544692718713816
0.4134864187630917
0.4115331446874735
0.4105565076496644
0.4115331446874735
0.4115331446874735
0.4115331446874735
0.4105565076496644
0.40957987061185525
0.40762659653623706
0.40762659653623706
0.40762659653623706
0.40762659653623706
0.40860323357404615
0.40957987061185525
0.40762659653623706
0.4056660881121906
0.40468945107438153
0.4027361769987633
0.4017595399609542
0.4017595399609542
0.4027361769987633
0.40468945107438153
0.40860323357404615
0.41642356422494725
0.4271738059892756
0.4428144672910778
0.46236891109254463
0.4848460316590105
0.5044004754604773
0.523947684913516
0.545455402790601
0.5689163947433042
0.5894402412341518
0.6070414109600005
0.6207215638377562
0.6285418944886573
0.6334323140261311
0.6353855881017493
0.6344089510639401
0.6304951685642756
0.6265886204130391
0.6216982008755654
0.6158383786487107
0.6109479591112369
0.605080902535954
0.5992210803090994
0.590416878271961
0.5786899994698235
0.5640259752058304
0.5483853139040282
0.5337212896400352
0.5210177738000886
0.5102675320357603
0.5034238384226682
0.4975567818473854
0.4926663623099116
0.4897364511964843
0.4848460316590105
0.479962846469965
0.47409578989468215
0.4692053703572084
0.46529882220597196
0.4604084026684982
0.45454858044164353
0.44965816090416977
0.4437911043288869
0.4389079191398414
0.4349941366401767
0.4320642255267494
0.42912708006489386
0.4271738059892756
0.42522053191365744
0.4232672578380392
0.42130674941399276
0.4193534753383746
0.41740020126275634
0.41642356422494725
0.41544692718713816
0.41544692718713816
0.41544692718713816
0.414470290149329
0.414470290149329
0.4134864187630917
0.4115331446874735
0.40957987061185525
0.40860323357404615
0.40957987061185525
0.40957987061185525
0.40957987061185525
0.40957987061185525
0.40762659653623706
0.40762659653623706
0.40664995949842797
0.4056660881121906
0.4037128140365724
0.4027361769987633
0.40078290292314506
0.39980626588533597
0.3978529918097178
0.39589248338567135
0.3949158463478622
0.39589248338567135
0.39686912042348044
0.39980626588533597
0.4056660881121906
0.414470290149329
0.4271738059892756
0.4437911043288869
0.46529882220597196
0.48778317712086605
0.5102675320357603
0.5307913785266078
0.5493619509418374
0.566963120667686
0.5816199105832508
0.5923773866960075
0.598237208922862
0.6001977173469085
0.6011743543847177
0.6021509914225267
0.6021509914225267
0.6021509914225267
0.5992210803090994
0.5943306607716257
0.5865103301207246
0.5757600883563961
0.5620727011302122
0.545455402790601
0.5298147414887988
0.5180806283382331
0.5063537495360956
0.49560350777176715
0.48680654008305696
0.47898620943215586
0.473119152856873
0.4692053703572084
0.46529882220597196
0.4613850397063073
0.45845512859287996
0.4555252174794526
0.4535647090554062
0.45063479794197886
0.4486815238663607
0.44672824979074244
0.4428144672910778
0.4398845561776505
0.4359707736779858
0.4320642255267494
0.42912708006489386
0.4271738059892756
0.42522053191365744
0.42130674941399276
0.41544692718713816
0.4115331446874735
0.40860323357404615
0.40664995949842797
0.4037128140365724
0.40078290292314506
0.3988296288475269
0.3978529918097178
0.39686912042348044
0.3949158463478622
0.392962572272244
0.39198593523443487
0.3900326611588167
0.38904878977257934
0.38904878977257934
0.38904878977257934
0.38904878977257934
0.38807215273477025
0.38709551569696116
0.386118878659152
0.3841656045835338
0.3841656045835338
0.3831889675457247
0.3812284591216783
0.37829854800825097
0.37634527393263273
0.3743919998570145
0.3724314914329681
0.37047821735734987
0.3695015803195408
0.3695015803195408
0.3734081284707772
0.38025182208386915
0.39198593523443487
0.40762659653623706
0.4271738059892756
0.4486815238663607
0.4701892417434457
0.4897364511964843
0.5053771124982864
0.5219944108378977
0.5356817980640817
0.545455402790601
0.553275733441502
0.5581589186305476
0.5610960640924031
0.5620727011302122
0.5610960640924031
0.5591427900167849
0.5571822815927384
0.553275733441502
0.5474086768662192
0.5415416202909363
0.5327446526022261
0.5219944108378977
0.5102675320357603
0.4985334188851945
0.48778317712086605
0.479962846469965
0.4721425158190639
0.46725209628159015
0.4633455481303537
0.4613850397063073
0.4604084026684982
0.45943176563068905
0.4565018545172618
0.45454858044164353
0.45063479794197886
0.44574437840450515
0.44183783025326867
0.43694741071579496
0.4330408625645585
0.42815044302708477
0.42424389487584835
0.42130674941399276
0.4193534753383746
0.41740020126275634
0.41642356422494725
0.414470290149329
0.4115331446874735
0.40860323357404615
0.40664995949842797
0.4056660881121906
0.4056660881121906
0.4056660881121906
0.4056660881121906
0.40468945107438153
0.4037128140365724
0.4027361769987633
0.4027361769987633
0.4017595399609542
0.4017595399609542
0.4027361769987633
0.40468945107438153
0.40664995949842797
0.40957987061185525
0.4105565076496644
0.40957987061185525
0.40860323357404615
0.4056660881121906
0.40468945107438153
0.40468945107438153
0.40468945107438153
0.4056660881121906
0.4056660881121906
0.40468945107438153
0.4027361769987633
0.40078290292314506
0.39980626588533597
0.40078290292314506
0.4056660881121906
0.41544692718713816
0.42912708006489386
0.44574437840450515
0.4643221851681628
0.4887598141586752
0.5131974431491875
0.538611709177509
0.5610960640924031
0.5806432735454417
0.597260571885053
0.6099713220734279
0.6207215638377562
0.6265886204130391
0.6295185315264664
0.6314790399505128
0.6314790399505128
0.6295185315264664
0.6256119833752299
0.6216982008755654
0.6158383786487107
0.6109479591112369
0.604104265498145
0.5962839348472438
0.5865103301207246
0.5747834513185871
0.5610960640924031
0.54643203982841
0.5327446526022261
0.5210177738000886
0.5102675320357603
0.5014633299986218
0.49560350777176715
0.4926663623099116
0.49168972527210253
0.4907130882342934
0.4907130882342934
0.4887598141586752
0.4858226686968196
0.4809394835077741
0.47604906397030033
0.4711658787812548
0.46725209628159015
0.46236891109254463
0.45845512859287996
0.4535647090554062
0.4486815238663607
0.4428144672910778
0.43792404775360405
0.4320642255267494
0.4271738059892756
0.4222906208002301
0.4193534753383746
0.4193534753383746
0.4193534753383746
0.4193534753383746
0.41837683830056543
0.41642356422494725
0.414470290149329
0.4125097817252826
0.4105565076496644
0.40957987061185525
0.40762659653623706
0.40762659653623706
0.40664995949842797
0.4056660881121906
0.4056660881121906
0.4056660881121906
0.40468945107438153
0.4027361769987633
0.40078290292314506
0.3978529918097178
0.3949158463478622
0.392962572272244
0.3900326611588167
0.38709551569696116
0.3841656045835338
0.3822123305079156
0.38025182208386915
0.3812284591216783
0.3831889675457247
0.38807215273477025
0.39686912042348044
0.40957987061185525
0.42522053191365744
0.444767741366696
0.46725209628159015
0.4907130882342934
0.5131974431491875
0.5337212896400352
0.553275733441502
0.5689163947433042
0.5796666365076326
0.5884636041963428
0.5943306607716257
0.597260571885053
0.5992210803090994
0.5992210803090994
0.5962839348472438
0.5933540237338165
0.590416878271961
0.5845570560451063
0.5777133624320144
0.5708696688189224
0.5610960640924031
0.5493619509418374
0.5366584351018908
0.5229710478757068
0.5102675320357603
0.49951005592300357
0.4907130882342934
0.48386939462120143
0.4770257010081094
0.473119152856873
0.4701892417434457
0.46822873331939924
0.46529882220597196
0.46236891109254463
0.45943176563068905
0.4565018545172618
0.4525880720175971
0.4477048868285516
0.4437911043288869
0.4398845561776505
0.4349941366401767
0.42912708006489386
0.42522053191365744
0.42130674941399276
0.41837683830056543
0.41642356422494725
0.414470290149329
0.4115331446874735
0.40957987061185525
0.40664995949842797
0.4037128140365724
0.40078290292314506
0.3978529918097178
0.39589248338567135
0.3949158463478622
0.3939392093100531
0.392962572272244
0.3939392093100531
0.3939392093100531
0.392962572272244
0.392962572272244
0.3949158463478622
0.39589248338567135
0.39686912042348044
0.39686912042348044
0.39589248338567135
0.3939392093100531
0.3939392093100531
0.392962572272244
0.392962572272244
0.392962572272244
0.39198593523443487
0.3910092981966258
0.38807215273477025
0.38709551569696116
0.386118878659152
0.38807215273477025
0.3900326611588167
0.3949158463478622
0.40468945107438153
0.41837683830056543
0.4330408625645585
0.4477048868285516
0.46822873331939924
0.4897364511964843
0.5102675320357603
0.5288381044509897
0.5444787657527919
0.5571822815927384
0.5659792492814486
0.5728229428945406
0.5777133624320144
0.5806432735454417
0.5816199105832508
0.5816199105832508
0.5806432735454417
0.5786899994698235
0.5737995799323498
0.5659792492814486
0.5562056445549294
0.5444787657527919
0.5298147414887988
0.5151507172248058
0.5034238384226682
0.49168972527210253
0.4819161205455832
0.47409578989468215
0.46822873331939924
0.4633455481303537
0.4604084026684982
0.45845512859287996
0.45845512859287996
0.45747849155507087
0.4565018545172618
0.4525880720175971
0.4486815238663607
0.4437911043288869
0.4389079191398414
0.43401749960236763
0.42912708006489386
0.42619716895146653
0.4232672578380392
0.4203301123761837
0.41740020126275634
0.414470290149329
0.4125097817252826
0.40957987061185525
0.40664995949842797
0.40468945107438153
0.4027361769987633
0.40078290292314506
0.39980626588533597
0.3978529918097178
0.39589248338567135
0.3939392093100531
0.39198593523443487
0.3910092981966258
0.38904878977257934
0.38807215273477025
0.386118878659152
0.3851422416213429
0.3831889675457247
0.3822123305079156
0.3831889675457247
0.3841656045835338
0.3841656045835338
0.3851422416213429
0.38709551569696116
0.38904878977257934
0.38904878977257934
0.38807215273477025
0.386118878659152
0.3831889675457247
0.3822123305079156
0.3812284591216783
0.3841656045835338
0.38904878977257934
0.3988296288475269
0.414470290149329
0.43401749960236763
0.45747849155507087
0.4809394835077741
0.5044004754604773
0.5268848303753715
0.5474086768662192
0.5640259752058304
0.5767367253942053
0.5855336930829155
0.5923773866960075
0.5962839348472438
0.597260571885053
0.598237208922862
0.598237208922862
0.597260571885053
0.5943306607716257
0.590416878271961
0.5865103301207246
0.5816199105832508
0.5747834513185871
0.5659792492814486
0.5542523704793112
0.5425254916771737
0.5307913785266078
0.5200411367622795
0.5102675320357603
0.5034238384226682
0.4975567818473854
0.4926663623099116
0.4887598141586752
0.48778317712086605
0.4848460316590105
0.4819161205455832
0.47898620943215586
0.47604906397030033
0.473119152856873
0.4701892417434457
0.46725209628159015
0.4633455481303537
0.45943176563068905
0.4555252174794526
0.451611434979788
0.44672824979074244
0.4428144672910778
0.4389079191398414
0.4359707736779858
0.4330408625645585
0.4310875884889403
0.42815044302708477
0.42522053191365744
0.4222906208002301
0.4203301123761837
0.41837683830056543
0.41642356422494725
0.414470290149329
0.414470290149329
0.4134864187630917
0.4134864187630917
0.4125097817252826
0.4105565076496644
0.40957987061185525
0.40860323357404615
0.40860323357404615
0.40860323357404615
0.40860323357404615
0.40860323357404615
0.4105565076496644
0.4125097817252826
0.41544692718713816
0.41642356422494725
0.41740020126275634
0.41740020126275634
0.41642356422494725
0.41544692718713816
0.414470290149329
0.414470290149329
0.41740020126275634
0.4232672578380392
0.4320642255267494
0.44574437840450515
0.4643221851681628
0.4858226686968196
0.5083070236117138
0.5307913785266078
0.5513224593658839
0.566963120667686
0.5777133624320144
0.5884636041963428
0.597260571885053
0.604104265498145
0.6080180479978096
0.6099713220734279
0.6109479591112369
0.6099713220734279
0.6070414109600005
0.6031276284603359
0.598237208922862
0.5933540237338165
0.5865103301207246
0.5786899994698235
0.5698930317811133
0.5591427900167849
0.5474086768662192
0.5356817980640817
0.5229710478757068
0.5131974431491875
0.5053771124982864
0.49951005592300357
0.49462687073395806
0.4907130882342934
0.4897364511964843
0.4887598141586752
0.48680654008305696
0.4848460316590105
0.4809394835077741
0.4770257010081094
0.47409578989468215
0.4701892417434457
0.46627545924378105
0.4613850397063073
0.4565018545172618
0.451611434979788
0.4477048868285516
0.4428144672910778
0.4389079191398414
0.43401749960236763
0.4301109514511312
0.4271738059892756
0.42522053191365744
0.42424389487584835
0.4222906208002301
0.4222906208002301
0.42130674941399276
0.4193534753383746
0.4193534753383746
0.4193534753383746
0.41837683830056543
0.41642356422494725
0.414470290149329
0.4115331446874735
0.40957987061185525
0.40664995949842797
0.40468945107438153
0.4027361769987633
0.4017595399609542
0.4027361769987633
0.4027361769987633
0.4037128140365724
0.4037128140365724
0.40468945107438153
0.40468945107438153
0.4037128140365724
0.4027361769987633
0.4017595399609542
0.40078290292314506
0.39980626588533597
0.4017595399609542
0.40664995949842797
0.414470290149329
0.4232672578380392
0.43401749960236763
0.451611434979788
0.47409578989468215
0.49658014480957624
0.5180806283382331
0.538611709177509
0.5571822815927384
0.5728229428945406
0.5835804190072973
0.5914007496581983
0.5953072978094348
0.597260571885053
0.597260571885053
0.5953072978094348
0.5943306607716257
0.5933540237338165
0.5914007496581983
0.5884636041963428
0.5835804190072973
0.5757600883563961
0.5650026122436396
0.5513224593658839
0.5366584351018908
0.5219944108378977
0.5112441690735693
0.5024472013848591
0.4936429993477207
0.48680654008305696
0.4819161205455832
0.4780023380459186
0.47604906397030033
0.47409578989468215
0.4711658787812548
0.46725209628159015
0.46236891109254463
0.45747849155507087
0.4525880720175971
0.4477048868285516
0.4428144672910778
0.43792404775360405
0.4330408625645585
0.4301109514511312
0.42619716895146653
0.4232672578380392
0.4203301123761837
0.41837683830056543
0.41544692718713816
0.4125097817252826
0.40957987061185525
0.40762659653623706
0.40664995949842797
0.4056660881121906
0.4056660881121906
0.4056660881121906
0.40468945107438153
0.4027361769987633
0.40078290292314506
0.3988296288475269
0.39686912042348044
0.39686912042348044
0.39686912042348044
0.39686912042348044
0.3978529918097178
0.39980626588533597
0.40078290292314506
0.4017595399609542
0.4027361769987633
0.4037128140365724
0.4027361769987633
0.40078290292314506
0.39980626588533597
0.3978529918097178
0.3949158463478622
0.392962572272244
0.3910092981966258
0.38904878977257934
0.38709551569696116
0.38807215273477025
0.39198593523443487
0.39980626588533597
0.4125097817252826
0.42815044302708477
0.4477048868285516
0.4701892417434457
0.4926663623099116
0.5131974431491875
0.5327446526022261
0.5483853139040282
0.5591427900167849
0.5689163947433042
0.5747834513185871
0.5796666365076326
0.5826037819694881
0.5835804190072973
0.5826037819694881
0.5796666365076326
0.5757600883563961
0.5689163947433042
0.5610960640924031
0.553275733441502
0.5444787657527919
0.5327446526022261
0.5200411367622795
0.5083070236117138
0.4975567818473854
0.48680654008305696
0.4780023380459186
0.4711658787812548
0.46529882220597196
0.4613850397063073
0.45943176563068905
0.4565018545172618
0.45454858044164353
0.4535647090554062
0.451611434979788
0.4477048868285516
0.4428144672910778
0.43792404775360405
0.4330408625645585
0.42815044302708477
0.42424389487584835
0.42130674941399276
0.41837683830056543
0.41642356422494725
0.414470290149329
0.4134864187630917
0.4125097817252826
0.4105565076496644
0.40860323357404615
0.40762659653623706
0.4056660881121906
0.4037128140365724
0.40078290292314506
0.3978529918097178
0.39589248338567135
0.3949158463478622
0.392962572272244
0.39198593523443487
0.39198593523443487
0.39198593523443487
0.39198593523443487
0.39198593523443487
0.3939392093100531
0.39589248338567135
0.3988296288475269
0.40078290292314506
0.40078290292314506
0.40078290292314506
0.39980626588533597
0.3978529918097178
0.39686912042348044
0.39589248338567135
0.3939392093100531
0.3939392093100531
0.3949158463478622
0.39686912042348044
0.4027361769987633
0.4115331446874735
0.42424389487584835
0.44183783025326867
0.4643221851681628
0.48778317712086605
0.5092836606495229
0.5288381044509897
0.5503385879796465
0.5708696688189224
0.5884636041963428
0.6011743543847177
0.6099713220734279
0.6158383786487107
0.618768289762138
0.6207215638377562
0.6216982008755654
0.6207215638377562
0.6168150156865198
0.6129012331868552
0.6080180479978096
0.6021509914225267
0.5943306607716257
0.5835804190072973
0.5718463058567315
0.5581589186305476
0.545455402790601
0.5347051610262725
0.524924321951325
0.5161273542626148
0.5092836606495229
0.5034238384226682
0.5004866929608127
0.4985334188851945
0.4975567818473854
0.49658014480957624
0.49462687073395806
0.4926663623099116
0.4887598141586752
0.4848460316590105
0.479962846469965
0.47409578989468215
0.4692053703572084
0.4643221851681628
0.45943176563068905
0.45454858044164353
0.44965816090416977
0.44672824979074244
0.4428144672910778
0.43792404775360405
0.4330408625645585
0.42815044302708477
0.42522053191365744
0.4232672578380392
0.42130674941399276
0.4222906208002301
0.42130674941399276
0.4203301123761837
0.4193534753383746
0.41837683830056543
0.41740020126275634
0.41740020126275634
0.41642356422494725
0.41544692718713816
0.41642356422494725
0.41740020126275634
0.41740020126275634
0.41837683830056543
0.4193534753383746
0.4193534753383746
0.4203301123761837
0.4193534753383746
0.41837683830056543
0.41740020126275634
0.41642356422494725
0.414470290149329
0.4115331446874735
0.4105565076496644
0.4115331446874735
0.4134864187630917
0.41642356422494725
0.42130674941399276
0.42912708006489386
0.44183783025326867
0.4604084026684982
0.4819161205455832
0.5053771124982864
0.5288381044509897
0.5513224593658839
0.5708696688189224
0.5884636041963428
0.6011743543847177
0.6099713220734279
0.6158383786487107
0.6177916527243289
0.618768289762138
0.6177916527243289
0.6158383786487107
0.6129012331868552
0.6080180479978096
0.6031276284603359
0.598237208922862
0.5914007496581983
0.5835804190072973
0.5737995799323498
0.5630493381680214
0.5522990964036929
0.539588346215318
0.524924321951325
0.5122208061113784
0.5004866929608127
0.49168972527210253
0.48680654008305696
0.48386939462120143
0.4819161205455832
0.479962846469965
0.47604906397030033
0.473119152856873
0.4701892417434457
0.46627545924378105
0.46236891109254463
0.45845512859287996
0.4535647090554062
0.4477048868285516
0.44183783025326867
0.4359707736779858
0.4310875884889403
0.42619716895146653
0.42130674941399276
0.41642356422494725
0.4134864187630917
0.4105565076496644
0.40860323357404615
0.40664995949842797
0.40468945107438153
0.4027361769987633
0.4017595399609542
0.3988296288475269
0.3978529918097178
0.3978529918097178
0.39686912042348044
0.3988296288475269
0.39980626588533597
0.40078290292314506
0.40078290292314506
0.40078290292314506
0.40078290292314506
0.39980626588533597
0.39980626588533597
0.39980626588533597
0.40078290292314506
0.40078290292314506
0.40078290292314506
0.39980626588533597
0.3978529918097178
0.39686912042348044
0.3949158463478622
0.392962572272244
0.3910092981966258
0.38904878977257934
0.3900326611588167
0.39198593523443487
0.39686912042348044
0.40468945107438153
0.41740020126275634
0.43401749960236763
0.4555252174794526
0.47898620943215586
0.49951005592300357
0.517103991300424
0.5356817980640817
0.553275733441502
0.5679397577054951
0.5786899994698235
0.5865103301207246
0.590416878271961
0.5933540237338165
0.5943306607716257
0.5943306607716257
0.5923773866960075
0.590416878271961
0.5865103301207246
0.5796666365076326
0.5718463058567315
0.5610960640924031
0.5474086768662192
0.5337212896400352
0.5210177738000886
0.5083070236117138
0.49951005592300357
0.49168972527210253
0.4848460316590105
0.47898620943215586
0.47507242693249124
0.473119152856873
0.4701892417434457
0.46725209628159015
0.4643221851681628
0.4604084026684982
0.4555252174794526
0.45063479794197886
0.444767741366696
0.4398845561776505
0.4349941366401767
0.4301109514511312
0.42522053191365744
0.4203301123761837
0.41642356422494725
0.4125097817252826
0.40860323357404615
0.4056660881121906
0.40468945107438153
0.40468945107438153
0.40468945107438153
0.40468945107438153
0.4056660881121906
0.4037128140365724
0.4017595399609542
0.39980626588533597
0.3988296288475269
0.39589248338567135
0.3939392093100531
0.3939392093100531
0.39589248338567135
0.39589248338567135
0.39686912042348044
0.3978529918097178
0.3978529918097178
0.3978529918097178
0.39686912042348044
0.39589248338567135
0.3949158463478622
0.3939392093100531
0.392962572272244
0.39198593523443487
0.3900326611588167
0.38807215273477025
0.38709551569696116
0.3841656045835338
0.3822123305079156
0.3822123305079156
0.3841656045835338
0.38709551569696116
0.3910092981966258
0.3988296288475269
0.4105565076496644
0.42619716895146653
0.44574437840450515
0.46822873331939924
0.4897364511964843
0.5112441690735693
0.5307913785266078
0.5474086768662192
0.5620727011302122
0.5728229428945406
0.5796666365076326
0.5835804190072973
0.5865103301207246
0.5874869671585337
0.5855336930829155
0.5806432735454417
0.5737995799323498
0.5659792492814486
0.5562056445549294
0.5444787657527919
0.5298147414887988
0.5161273542626148
0.5024472013848591
0.49168972527210253
0.4819161205455832
0.47409578989468215
0.46725209628159015
0.4604084026684982
0.4555252174794526
0.4535647090554062
0.4525880720175971
0.45063479794197886
0.44672824979074244
0.4437911043288869
0.4398845561776505
0.43694741071579496
0.43401749960236763
0.4320642255267494
0.42912708006489386
0.42619716895146653
0.4232672578380392
0.4203301123761837
0.41740020126275634
0.414470290149329
0.4125097817252826
0.4115331446874735
0.40957987061185525
0.40860323357404615
0.40664995949842797
0.4056660881121906
0.4037128140365724
0.4017595399609542
0.40078290292314506
0.4017595399609542
0.4027361769987633
0.4027361769987633
0.4037128140365724
0.40468945107438153
0.4056660881121906
0.4056660881121906
0.4056660881121906
0.40664995949842797
0.40664995949842797
0.40762659653623706
0.40860323357404615
0.40762659653623706
0.40762659653623706
0.40664995949842797
0.4056660881121906
0.4056660881121906
0.40468945107438153
0.4037128140365724
0.4027361769987633
0.4027361769987633
0.4037128140365724
0.40664995949842797
0.40860323357404615
0.4134864187630917
0.4222906208002301
0.4359707736779858
0.45454858044164353
0.4770257010081094
0.5014633299986218
0.5268848303753715
0.5522990964036929
0.5728229428945406
0.5874869671585337
0.6021509914225267
0.6129012331868552
0.6216982008755654
0.6285418944886573
0.632455676988322
0.6344089510639401
0.6353855881017493
0.6344089510639401
0.6314790399505128
0.6265886204130391
0.6207215638377562
0.611924596149046
0.6031276284603359
0.5923773866960075
0.5796666365076326
0.5659792492814486
0.553275733441502
0.5405649832531272
0.5288381044509897
0.5190644997244704
0.5102675320357603
0.5024472013848591
0.4936429993477207
0.4858226686968196
0.4819161205455832
0.479962846469965
0.47898620943215586
0.47898620943215586
0.4780023380459186
0.47604906397030033
0.473119152856873
0.4701892417434457
0.46529882220597196
0.4604084026684982
0.45454858044164353
0.44965816090416977
0.44574437840450515
0.4398845561776505
0.4349941366401767
0.4320642255267494
0.42815044302708477
0.42424389487584835
0.4193534753383746
0.414470290149329
0.4105565076496644
0.40762659653623706
0.4056660881121906
0.40468945107438153
0.40468945107438153
0.40468945107438153
0.40468945107438153
0.4037128140365724
0.4017595399609542
0.4017595399609542
0.40078290292314506
0.4017595399609542
0.4037128140365724
0.4037128140365724
0.40468945107438153
0.40468945107438153
0.40468945107438153
0.4056660881121906
0.4056660881121906
0.40664995949842797
0.40664995949842797
0.4056660881121906
0.4037128140365724
0.4017595399609542
0.3988296288475269
0.3978529918097178
0.3988296288475269
0.40078290292314506
0.40762659653623706
0.41642356422494725
0.42815044302708477
0.444767741366696
0.46627545924378105
0.4897364511964843
0.5122208061113784
0.5327446526022261
0.5522990964036929
0.5679397577054951
0.5786899994698235
0.5874869671585337
0.5933540237338165
0.5953072978094348
0.5953072978094348
0.5962839348472438
0.5962839348472438
0.5943306607716257
0.5914007496581983
0.5874869671585337
0.5826037819694881
0.5757600883563961
0.566963120667686
0.5562056445549294
0.5435021287149827
0.5307913785266078
0.5180806283382331
0.5083070236117138
0.5004866929608127
0.4936429993477207
0.48680654008305696
0.4809394835077741
0.4770257010081094
0.47507242693249124
0.473119152856873
0.4701892417434457
0.46822873331939924
0.46529882220597196
0.46236891109254463
0.45845512859287996
0.45454858044164353
0.45063479794197886
0.44574437840450515
0.4398845561776505
0.4349941366401767
0.42912708006489386
0.4232672578380392
0.41740020126275634
0.4125097817252826
0.40860323357404615
0.4056660881121906
0.4037128140365724
0.4027361769987633
0.40078290292314506
0.39980626588533597
0.3988296288475269
0.3978529918097178
0.3978529918097178
0.3978529918097178
0.3978529918097178
0.3988296288475269
0.3988296288475269
0.3988296288475269
0.39980626588533597
0.40078290292314506
0.39980626588533597
0.3978529918097178
0.39686912042348044
0.39589248338567135
0.39589248338567135
0.39686912042348044
0.3978529918097178
0.3988296288475269
0.3988296288475269
0.3988296288475269
0.3978529918097178
0.39589248338567135
0.3949158463478622
0.3939392093100531
0.3949158463478622
0.39686912042348044
0.40078290292314506
0.40664995949842797
0.41642356422494725
0.4310875884889403
0.451611434979788
0.47604906397030033
0.5004866929608127
0.5200411367622795
0.5366584351018908
0.5522990964036929
0.5659792492814486
0.5757600883563961
0.5816199105832508
0.5845570560451063
0.5855336930829155
0.5845570560451063
0.5826037819694881
0.5796666365076326
0.5767367253942053
0.5718463058567315
0.5659792492814486
0.5581589186305476
0.5474086768662192
0.5347051610262725
0.5219944108378977
0.5083070236117138
0.49658014480957624
0.4848460316590105
0.47604906397030033
0.46822873331939924
0.46236891109254463
0.45845512859287996
0.45747849155507087
0.4565018545172618
0.4555252174794526
0.45454858044164353
0.451611434979788
0.4477048868285516
0.4428144672910778
0.43792404775360405
0.4330408625645585
0.42815044302708477
0.4232672578380392
0.4193534753383746
0.414470290149329
0.4115331446874735
0.40762659653623706
0.40468945107438153
0.4017595399609542
0.3988296288475269
0.39589248338567135
0.3939392093100531
0.39198593523443487
0.39198593523443487
0.39198593523443487
0.392962572272244
0.392962572272244
0.392962572272244
0.3939392093100531
0.3949158463478622
0.3939392093100531
0.392962572272244
0.392962572272244
0.39198593523443487
0.39198593523443487
0.39198593523443487
0.39198593523443487
0.39198593523443487
0.39198593523443487
0.392962572272244
0.392962572272244
0.392962572272244
0.39198593523443487
0.3900326611588167
0.38709551569696116
0.3841656045835338
0.3822123305079156
0.38025182208386915
0.37927518504606006
0.3812284591216783
0.3831889675457247
0.38904878977257934
0.39686912042348044
0.40762659653623706
0.4222906208002301
0.4428144672910778
0.4643221851681628
0.48680654008305696
0.5073303865739046
0.5268848303753715
0.5444787657527919
0.5571822815927384
0.5659792492814486
0.5718463058567315
0.5757600883563961
0.5767367253942053
0.5757600883563961
0.5737995799323498
0.5708696688189224
0.5679397577054951
0.5620727011302122
0.5542523704793112
0.5425254916771737
0.5298147414887988
0.5161273542626148
0.5024472013848591
0.4907130882342934
0.479962846469965
0.4701892417434457
0.4613850397063073
0.45454858044164353
0.45063479794197886
0.4486815238663607
0.4477048868285516
0.44672824979074244
0.4437911043288869
0.4389079191398414
0.43401749960236763
0.42912708006489386
0.42424389487584835
0.4193534753383746
0.41544692718713816
0.4115331446874735
0.40860323357404615
0.4056660881121906
0.4037128140365724
0.4027361769987633
0.40078290292314506
0.3978529918097178
0.39589248338567135
0.3949158463478622
0.3939392093100531
0.392962572272244
0.3939392093100531
0.3939392093100531
0.3939392093100531
0.3939392093100531
0.3939392093100531
0.3939392093100531
0.3939392093100531
0.3939392093100531
0.3939392093100531
0.3939392093100531
0.3939392093100531
0.3939392093100531
0.3949158463478622
0.39686912042348044
0.3978529918097178
0.3988296288475269
0.39980626588533597
0.39980626588533597
0.3988296288475269
0.39686912042348044
0.3949158463478622
0.39198593523443487
0.38904878977257934
0.38807215273477025
0.38807215273477025
0.3900326611588167
0.392962572272244
0.3978529918097178
0.40664995949842797
0.4203301123761837
0.4408611932154596
0.46627545924378105
0.4936429993477207
0.5229710478757068
0.5513224593658839
0.5767367253942053
0.5953072978094348
0.6099713220734279
0.6226748379133744
0.6314790399505128
0.6383154992151766
0.6412526446770321
0.6422292817148413
0.6432059187526503
0.6422292817148413
0.6383154992151766
0.6334323140261311
0.6275652574508482
0.6207215638377562
0.6129012331868552
0.605080902535954
0.5943306607716257
0.5816199105832508
0.5659792492814486
0.5513224593658839
0.5366584351018908
0.524924321951325
0.5141740801869966
0.5063537495360956
0.5004866929608127
0.4975567818473854
0.49658014480957624
0.49560350777176715
0.49462687073395806
0.49168972527210253
0.48680654008305696
0.4819161205455832
0.4770257010081094
0.473119152856873
0.4692053703572084
0.46529882220597196
0.4633455481303537
0.45943176563068905
0.45454858044164353
0.44965816090416977
0.444767741366696
0.4389079191398414
0.4330408625645585
0.4271738059892756
0.4222906208002301
0.4193534753383746
0.41642356422494725
0.4125097817252826
0.40957987061185525
0.40762659653623706
0.40664995949842797
0.40664995949842797
0.40664995949842797
0.40664995949842797
0.40664995949842797
0.40664995949842797
0.40664995949842797
0.40664995949842797
0.4056660881121906
0.40664995949842797
0.4056660881121906
0.4056660881121906
0.4056660881121906
0.40468945107438153
0.40468945107438153
0.4037128140365724
0.4037128140365724
0.4027361769987633
0.4017595399609542
0.40078290292314506
0.3988296288475269
0.3988296288475269
0.40078290292314506
0.4027361769987633
0.40860323357404615
0.41837683830056543
0.4301109514511312
0.44672824979074244
0.46822873331939924
0.4926663623099116
0.517103991300424
0.5405649832531272
0.5630493381680214
0.5826037819694881
0.598237208922862
0.6099713220734279
0.6177916527243289
0.6207215638377562
0.6216982008755654
0.6207215638377562
0.618768289762138
0.6158383786487107
0.6129012331868552
0.6099713220734279
0.6060575395737632
0.6001977173469085
0.5914007496581983
0.5796666365076326
0.5659792492814486
0.5503385879796465
0.5356817980640817
0.5229710478757068
0.5141740801869966
0.5063537495360956
0.4985334188851945
0.4936429993477207
0.4907130882342934
0.4897364511964843
0.4887598141586752
0.4887598141586752
0.4887598141586752
0.48680654008305696
0.48289275758339234
0.479962846469965
0.47604906397030033
0.4711658787812548
0.46529882220597196
0.45845512859287996
0.4525880720175971
0.44574437840450515
0.4398845561776505
0.4330408625645585
0.42619716895146653
0.4203301123761837
0.414470290149329
0.4105565076496644
0.40860323357404615
0.40762659653623706
0.40664995949842797
0.4056660881121906
0.4037128140365724
0.4017595399609542
0.3988296288475269
0.39589248338567135
0.392962572272244
0.3910092981966258
0.3900326611588167
0.38904878977257934
0.38904878977257934
0.38904878977257934
0.38904878977257934
0.3910092981966258
0.392962572272244
0.39589248338567135
